Timestamp,ECG,GSR,Gas,Pulse_IR,Temp_Max,Label
18429,1195,28592,105,100666,36.51,-7.27,-4.94
18458,2086,28592,164,102006,35.00,-7.26,-4.92
18480,1739,28592,167,102069,35.00,-7.26,-4.93
18502,1637,28592,153,102142,35.00,-7.22,-4.95
18524,1669,28592,139,102217,35.00,-7.24,-4.91
18546,1748,28592,135,102279,35.00,-7.24,-4.93
18568,1709,28592,133,102342,35.00,-7.27,-4.92
18590,1519,28592,126,102382,35.00,-7.25,-4.91
18612,1284,28592,137,102320,35.00,-7.24,-4.94
18634,1269,28592,149,102070,35.00,-7.26,-4.95
18656,1285,28592,155,101644,35.00,-7.25,-4.94
18698,1373,28592,163,100762,35.00,-7.28,-4.92
18720,1511,28080,160,100653,35.00,-7.25,-4.96
18742,1755,28592,151,100567,35.00,-7.26,-4.96
18764,1741,28592,139,100503,35.00,-7.29,-4.96
18786,1755,28592,121,100483,35.00,-7.23,-4.97
18808,1576,28592,120,100540,35.00,-7.25,-4.90
18830,1443,28592,115,100670,35.00,-7.24,-4.94
18852,1241,28592,119,100806,35.00,-7.26,-4.96
18874,1467,28592,150,100903,35.00,-7.26,-4.96
18896,1828,28592,174,100969,35.00,-7.26,-4.99
18938,2067,28592,179,101151,35.00,-7.26,-4.93
18960,1763,28592,165,101217,35.00,-7.22,-4.95
18982,1751,28592,149,101293,35.00,-7.28,-4.95
19705,1691,28592,125,101365,35.41,-7.21,-4.93
19740,1287,28592,119,101226,35.00,-7.23,-4.96
19762,1061,28592,139,101279,35.00,-7.24,-4.95
19784,1048,28592,115,101331,35.00,-7.25,-4.91
19806,952,28592,99,101379,35.00,-7.23,-4.94
19828,925,28592,87,101419,35.00,-7.23,-4.91
19850,731,28592,85,101462,35.00,-7.27,-4.96
19872,639,28592,91,101509,35.00,-7.24,-4.91
19894,1199,28592,125,101555,35.00,-7.26,-4.94
19916,1763,28592,153,101619,35.00,-7.23,-4.92
19938,1706,28080,164,101681,35.00,-7.22,-4.93
19981,1427,28592,157,101866,35.00,-7.24,-4.97
20725,1803,28592,155,101911,35.77,-7.29,-4.91
20762,1751,27312,147,102126,35.00,-7.25,-4.91
20784,1523,27312,159,101758,35.00,-7.23,-4.98
20806,1629,27312,149,101354,35.00,-7.27,-4.94
20828,1733,28080,138,101057,35.00,-7.22,-4.93
20850,1721,27312,127,100879,35.00,-7.24,-4.93
20872,1711,27312,123,100781,35.00,-7.28,-4.95
20894,1647,28080,124,100672,35.00,-7.26,-4.94
20916,1327,27312,124,100616,35.00,-7.24,-4.95
20938,1261,27312,141,100606,35.00,-7.25,-4.93
20960,1574,27312,165,100682,35.00,-7.24,-4.96
20982,1645,27312,165,100801,35.00,-7.24,-4.95
21023,1765,28080,159,101177,35.00,-7.29,-4.93
21045,1811,28080,159,101239,35.00,-7.24,-4.94
21067,1949,27312,150,101297,35.00,-7.28,-4.96
21089,2151,28080,148,101365,35.00,-7.25,-4.95
21111,2169,28080,136,101432,35.00,-7.25,-4.93
21133,2029,28080,133,101507,35.00,-7.26,-4.96
21155,1956,28080,141,101598,35.00,-7.28,-4.95
21177,1949,28080,153,101678,35.00,-7.28,-4.95
21199,1935,28080,168,101767,35.00,-7.22,-4.94
21221,1944,27312,171,101844,35.00,-7.23,-4.98
21264,1951,28080,183,102063,35.00,-7.22,-4.98
21286,2143,28080,172,102126,35.00,-7.26,-4.96
21308,2265,28080,163,102189,35.00,-7.23,-4.92
21330,2235,28080,150,102240,35.00,-7.23,-4.93
21352,2165,28080,151,102300,35.00,-7.24,-4.91
21374,1997,28080,141,102367,35.00,-7.24,-4.93
21396,2008,28080,151,102451,35.00,-7.26,-4.94
21418,1956,28080,157,102510,35.00,-7.25,-4.93
21440,1845,28080,179,102577,35.00,-7.26,-4.96
21462,1699,28080,179,102614,35.00,-7.26,-4.91
21504,1780,28080,179,102023,35.00,-7.24,-4.93
21526,1891,28080,171,101570,35.00,-7.26,-4.96
21548,1853,28080,163,101242,35.00,-7.25,-4.93
21570,1864,28080,144,101042,35.00,-7.23,-4.96
21592,1875,28080,142,100895,35.00,-7.22,-4.96
21614,1735,28080,123,100785,35.00,-7.25,-4.93
21636,1576,28080,127,100723,35.00,-7.25,-4.99
21658,1365,28080,137,100697,35.00,-7.27,-4.88
21680,1131,28080,137,100726,35.00,-7.22,-4.93
21702,814,27312,133,100827,35.00,-7.24,-4.99
21724,752,28080,137,100964,35.00,-7.21,-4.95
21765,1193,28080,159,101177,35.00,-7.24,-4.88
21787,2601,28080,214,101240,35.00,-7.23,-4.95
21809,2393,28080,160,101311,35.00,-7.24,-4.92
21831,1962,28080,135,101363,35.00,-7.23,-4.93
21853,1819,28080,126,101433,35.00,-7.21,-4.94
21875,1489,28080,103,101513,35.00,-7.24,-4.94
21897,1145,28080,117,101587,35.00,-7.23,-4.93
21919,1203,28080,135,101657,35.00,-7.25,-4.94
21941,1432,28080,169,101722,35.00,-7.21,-4.94
21963,2021,28080,207,101796,35.00,-7.28,-4.96
22510,1983,28080,174,102014,35.40,-7.24,-4.94
22547,1967,28080,149,101296,35.00,-7.25,-4.96
22569,1837,27312,166,101372,35.00,-7.24,-4.92
22591,1784,28080,151,101447,35.00,-7.20,-4.95
22613,1533,28080,125,101521,35.00,-7.22,-4.95
22635,1357,28080,121,101602,35.00,-7.25,-4.91
22657,1623,28080,135,101682,35.00,-7.21,-4.91
22679,1706,27312,160,101743,35.00,-7.27,-4.96
22701,1947,27312,187,101816,35.00,-7.24,-4.94
22723,2324,27312,197,101890,35.00,-7.23,-4.96
22745,987,27312,164,101948,35.00,-7.24,-4.92
22787,1265,27312,151,102131,35.00,-7.23,-4.94
22809,1557,27312,137,102195,35.00,-7.23,-4.95
22831,871,27312,104,102262,35.00,-7.26,-4.98
22853,554,27312,91,102333,35.00,-7.24,-4.96
22875,597,27312,93,102388,35.00,-7.26,-4.93
22897,1254,27312,117,102429,35.00,-7.27,-4.90
22919,1993,27312,157,102440,35.00,-7.22,-4.94
22941,2163,27312,181,102309,35.00,-7.27,-4.96
22963,2382,27312,205,101967,35.00,-7.25,-4.95
22985,2229,27312,203,101543,35.00,-7.23,-4.95
23530,2173,27312,187,101192,35.76,-7.23,-4.93
23569,1845,26800,157,102195,35.00,-7.24,-4.94
23591,1787,26800,164,102270,35.00,-7.25,-4.98
23613,2056,26800,159,102334,35.00,-7.21,-4.90
23635,2297,26800,164,102367,35.00,-7.21,-4.96
23657,2150,26800,149,102263,35.00,-7.24,-4.95
23679,1786,26800,140,101919,35.00,-7.26,-4.93
23701,1433,26800,139,101488,35.00,-7.24,-4.96
23723,1229,26416,136,101106,35.00,-7.25,-4.95
23745,1197,26416,159,100862,35.00,-7.24,-4.93
23767,1463,26416,172,100723,35.00,-7.26,-4.94
23789,1767,26416,181,100648,35.00,-7.27,-4.96
23830,1675,26416,152,100550,35.00,-7.24,-4.92
23852,1277,26416,136,100659,35.00,-7.26,-4.96
23874,1045,26416,116,100814,35.00,-7.27,-4.94
23896,1630,26416,125,100922,35.00,-7.28,-4.94
23918,1843,26416,133,101002,35.00,-7.24,-4.93
23940,1611,26416,135,101046,35.00,-7.25,-4.91
23962,1699,26416,137,101096,35.00,-7.25,-4.93
23984,1581,26416,147,101172,35.00,-7.26,-4.94
24551,1589,26416,157,101241,35.30,-7.24,-4.95
24592,1904,25136,157,100863,35.00,-7.26,-4.94
24614,1461,25136,127,100995,35.00,-7.24,-4.91
24636,1443,25136,111,101086,35.00,-7.21,-4.91
24658,1641,25136,123,101130,35.00,-7.20,-4.90
24680,2027,25136,151,101207,35.00,-7.26,-4.98
24702,2318,25136,179,101271,35.00,-7.20,-4.98
24724,1959,25136,150,101347,35.00,-7.25,-4.94
24746,1645,25136,159,101427,35.00,-7.22,-4.93
24768,1449,25136,153,101494,35.00,-7.29,-4.96
24790,1261,25136,139,101569,35.00,-7.21,-4.93
24832,1139,25904,126,101824,35.00,-7.27,-4.93
24854,1593,25136,151,101880,35.00,-7.25,-4.92
24876,2199,25136,180,101948,35.00,-7.23,-4.98
24898,2671,25136,181,102006,35.00,-7.22,-4.95
24920,2075,25136,134,102073,35.00,-7.26,-4.92
24942,1837,25136,127,102119,35.00,-7.24,-4.93
24964,1639,25136,133,102181,35.00,-7.26,-4.95
24986,1043,25136,120,102249,35.00,-7.23,-4.92
25571,973,25136,135,102313,35.00,-7.24,-4.93
25602,1748,25136,188,101852,35.00,-7.25,-4.93
25624,2527,25136,171,101897,35.00,-7.22,-4.91
25646,1939,25904,153,101963,35.00,-7.27,-4.94
25668,1629,25136,157,102013,35.00,-7.26,-4.96
25690,1499,25904,157,102064,35.00,-7.24,-4.97
25712,1262,25136,141,102127,35.00,-7.24,-4.96
25754,1317,25904,137,102338,35.00,-7.27,-4.95
25776,2221,25904,189,102394,35.00,-7.25,-4.96
25798,2806,25904,197,102416,35.00,-7.25,-4.93
25820,2259,25904,151,102317,35.00,-7.28,-4.95
25842,1967,25136,142,101980,35.00,-7.25,-4.93
25864,1743,25904,132,101549,35.00,-7.25,-4.94
25886,1417,25904,136,101163,35.00,-7.26,-4.96
25908,1623,25136,163,100909,35.00,-7.27,-4.95
25930,1903,25136,197,100758,35.00,-7.23,-4.98
25952,2006,25136,179,100654,35.00,-7.24,-4.97
25974,1960,25136,172,100548,35.00,-7.25,-4.98
26592,1900,25136,157,100588,35.50,-7.24,-4.92
26623,2005,25136,187,100673,35.00,-7.26,-4.94
26645,2002,25136,138,100526,35.00,-7.29,-4.93
26667,1947,25136,157,100425,35.00,-7.25,-4.95
26689,1693,25136,163,100340,35.00,-7.22,-4.95
26711,1592,25136,173,100314,35.00,-7.24,-4.94
26733,1765,25136,181,100328,35.00,-7.25,-4.93
26755,1817,25136,173,100430,35.00,-7.25,-4.92
26797,1887,25136,163,100745,35.00,-7.24,-4.93
26819,1951,25136,166,100792,35.00,-7.23,-4.92
26841,1709,25136,139,100858,35.00,-7.24,-4.94
26863,1780,25136,140,100914,35.00,-7.28,-4.94
26885,1619,25136,127,100979,35.00,-7.27,-4.95
26907,1453,25136,137,101045,35.00,-7.24,-4.94
26929,1187,25136,137,101119,35.00,-7.28,-4.97
26951,1008,25136,151,101201,35.00,-7.28,-4.97
26973,1062,25136,157,101290,35.00,-7.27,-4.94
26995,1551,25136,183,101372,35.00,-7.25,-4.90
27038,1791,25136,163,101572,35.00,-7.21,-4.95
27060,1503,25136,133,101639,35.00,-7.20,-4.97
27082,1607,25136,121,101689,35.00,-7.25,-4.94
27104,1463,25136,102,101735,35.00,-7.26,-4.95
27126,1270,25904,102,101796,35.00,-7.27,-4.93
27148,1193,25904,126,101844,35.00,-7.22,-4.95
27170,1623,25136,168,101912,35.00,-7.22,-4.99
27192,2187,25136,191,101986,35.00,-7.23,-4.94
27214,2019,25136,173,102036,35.00,-7.23,-4.96
27236,1877,25136,167,102072,35.00,-7.27,-4.92
27278,1877,25136,151,101533,35.00,-7.26,-4.98
27300,1843,25136,135,101091,35.00,-7.27,-4.95
27322,1891,25136,123,100762,35.00,-7.31,-4.96
27344,2111,25136,143,100554,35.00,-7.24,-4.98
27366,2519,25136,171,100424,35.00,-7.23,-4.90
27388,2439,25136,163,100302,35.00,-7.25,-4.94
27410,2202,25136,171,100230,35.00,-7.26,-4.94
27432,2043,25136,176,100200,35.00,-7.25,-4.95
27454,1839,25136,174,100209,35.00,-7.29,-4.94
27476,1637,25136,157,100307,35.00,-7.26,-4.94
27519,1655,25136,154,100628,35.00,-7.28,-4.94
27541,2236,25136,174,100687,35.00,-7.27,-4.91
27563,2490,25136,179,100743,35.00,-7.26,-4.94
27585,1837,25136,127,100785,35.00,-7.24,-4.94
27607,1515,25136,123,100863,35.00,-7.25,-4.97
27629,1445,25136,133,100937,35.00,-7.24,-4.94
27651,1129,25904,122,101004,35.00,-7.22,-4.95
27673,869,25136,132,101081,35.00,-7.24,-4.92
27695,825,25136,141,101155,35.00,-7.24,-4.95
27717,1173,25136,154,101226,35.00,-7.26,-4.98
27759,1901,25136,167,101431,35.00,-7.25,-4.91
27781,1575,25904,117,101498,35.00,-7.27,-4.93
27803,1559,25136,107,101555,35.00,-7.23,-4.96
27825,1545,25904,101,101603,35.00,-7.22,-4.94
27847,1323,25136,91,101658,35.00,-7.26,-4.95
27869,1250,25904,105,101717,35.00,-7.19,-4.93
27891,1397,25904,134,101790,35.00,-7.25,-4.93
27913,1945,25136,179,101867,35.00,-7.26,-4.94
27935,2265,25136,173,101936,35.00,-7.23,-4.92
27957,1957,25136,155,101968,35.00,-7.27,-4.94
27979,1903,25904,147,101928,35.00,-7.24,-4.91
28020,1811,25904,122,100824,35.00,-7.23,-4.96
28042,1450,25136,106,100526,35.00,-7.24,-4.95
28064,1543,25136,111,100327,35.00,-7.22,-4.91
28086,1989,24624,139,100167,35.00,-7.27,-4.93
28108,2441,24624,167,100042,35.00,-7.27,-4.93
28130,2189,24624,150,99956,35.00,-7.26,-4.98
28152,1938,24624,151,99932,35.00,-7.28,-4.97
28174,1821,24624,159,99980,35.00,-7.26,-4.93
28196,1739,24624,151,100097,35.00,-7.24,-4.90
28218,1503,24624,147,100259,35.00,-7.25,-4.94
28261,1641,24624,135,100548,35.00,-7.25,-4.98
28283,2538,24624,166,100627,35.00,-7.27,-4.95
28305,2585,25136,149,100705,35.00,-7.27,-4.94
28327,2197,25136,134,100773,35.00,-7.28,-4.93
28349,2053,25136,141,100850,35.00,-7.24,-4.94
28371,1853,25136,134,100933,35.00,-7.27,-4.94
28393,1516,25136,143,101015,35.00,-7.23,-4.96
28415,1573,25136,155,101109,35.00,-7.24,-4.95
28437,1925,25136,179,101175,35.00,-7.26,-4.92
28459,2479,25136,203,101241,35.00,-7.25,-4.94
28501,2745,25136,187,101459,35.00,-7.24,-4.92
28523,2283,25136,154,101507,35.00,-7.25,-4.94
28545,2220,25136,141,101570,35.00,-7.26,-4.93
28567,1855,25136,122,101624,35.00,-7.22,-4.92
28589,1877,25136,135,101701,35.00,-7.24,-4.96
28611,1835,25136,157,101753,35.00,-7.24,-4.91
28633,2106,25136,188,101836,35.00,-7.23,-4.95
28655,2213,25136,191,101902,35.00,-7.30,-4.93
28677,2002,25136,187,101944,35.00,-7.28,-4.93
28699,1935,25136,181,101943,35.00,-7.26,-4.91
28742,1898,25136,157,100936,35.00,-7.24,-4.90
28764,1763,25136,141,100612,35.00,-7.25,-4.93
28786,1815,25136,143,100427,35.00,-7.30,-4.96
28808,2042,25136,166,100278,35.00,-7.24,-4.92
28830,1827,25136,145,100167,35.00,-7.24,-4.95
28852,1496,25136,149,100080,35.00,-7.25,-4.96
28874,1379,25136,159,100050,35.00,-7.29,-4.93
28896,1158,25136,149,100062,35.00,-7.28,-4.98
28918,1031,25136,153,100155,35.00,-7.27,-4.92
28940,1180,25136,154,100278,35.00,-7.20,-4.97
28982,1335,25136,149,100501,35.00,-7.25,-4.95
29396,1521,25136,123,100535,35.47,-7.23,-4.96
29424,2615,25904,211,101672,35.00,-7.28,-4.96
29446,2407,25904,155,101415,35.00,-7.21,-4.97
29468,2283,25904,155,100987,35.00,-7.25,-4.95
29490,1819,25904,149,100579,35.00,-7.27,-4.94
29512,1587,25904,155,100311,35.00,-7.27,-4.94
29534,1527,25904,169,100149,35.00,-7.22,-4.96
29556,1631,25136,184,100044,35.00,-7.24,-4.97
29578,1971,25904,201,99975,35.00,-7.26,-4.96
29600,2136,25904,197,99909,35.00,-7.27,-4.92
29622,2098,25904,179,99897,35.00,-7.26,-4.94
29664,1801,25904,153,100214,35.00,-7.24,-4.96
29686,1275,25904,139,100319,35.00,-7.24,-4.95
29708,2317,25904,158,100381,35.00,-7.23,-4.92
29730,2009,25904,151,100434,35.00,-7.26,-4.93
29752,1746,25904,149,100499,35.00,-7.27,-4.95
29774,1579,25904,152,100565,35.00,-7.26,-4.95
29796,1801,25904,169,100637,35.00,-7.22,-5.00
29818,1031,25904,159,100692,35.00,-7.21,-4.98
29840,1151,26416,157,100775,35.00,-7.25,-4.99
29862,1510,25904,155,100858,35.00,-7.26,-4.99
29905,395,26416,109,101097,35.00,-7.24,-4.92
29927,347,26416,85,101165,35.00,-7.27,-4.93
29949,628,26416,91,101241,35.00,-7.18,-4.96
29971,1203,26416,107,101288,35.00,-7.25,-4.99
29993,1478,26416,121,101343,35.00,-7.28,-4.94
30417,1783,26416,149,101388,35.06,-7.26,-4.96
30446,3876,25904,291,100623,35.00,-7.25,-4.97
30468,1849,25904,201,100712,35.00,-7.23,-4.94
30490,1310,26416,168,100782,35.00,-7.23,-4.93
30512,1422,25904,165,100861,35.00,-7.21,-4.94
30534,2009,25904,183,100937,35.00,-7.27,-4.97
30556,1997,25904,186,101011,35.00,-7.22,-4.95
30578,1979,25904,215,101098,35.00,-7.26,-4.92
30600,1769,25904,219,101174,35.00,-7.23,-4.94
30622,1911,25904,221,101256,35.00,-7.24,-4.96
30644,1813,25904,200,101328,35.00,-7.25,-4.96
30687,1749,25904,185,101539,35.00,-7.25,-4.94
30709,1181,25904,149,101597,35.00,-7.24,-4.95
30731,1031,25904,149,101658,35.00,-7.25,-4.94
30753,949,25904,141,101725,35.00,-7.24,-4.94
30775,627,25904,147,101804,35.00,-7.25,-4.96
30797,581,25904,151,101876,35.00,-7.29,-4.93
30819,633,25904,167,101945,35.00,-7.25,-4.96
30841,679,25904,167,102011,35.00,-7.25,-4.92
30863,751,25904,165,102062,35.00,-7.28,-4.96
30885,661,25904,149,102050,35.00,-7.26,-4.95
30927,759,25904,134,101077,35.00,-7.30,-4.92
30949,1095,25904,119,100750,35.00,-7.22,-4.96
30971,1015,25904,117,100569,35.00,-7.26,-4.99
30993,1061,25904,111,100461,35.00,-7.25,-4.91
31437,1096,25904,123,100371,35.64,-7.26,-4.90
31469,2011,26416,164,101827,35.00,-7.24,-4.94
31491,2287,25904,141,101887,35.00,-7.25,-4.95
31513,2143,26416,137,101970,35.00,-7.29,-4.93
31535,2013,26416,137,102043,35.00,-7.26,-4.93
31557,1682,26416,121,102114,35.00,-7.28,-4.98
31579,1135,26416,117,102168,35.00,-7.22,-4.93
31601,986,26416,111,102201,35.00,-7.22,-4.97
31623,795,26416,109,102143,35.00,-7.22,-4.94
31645,1085,26416,105,101845,35.00,-7.21,-4.95
31667,1685,25904,110,101412,35.00,-7.28,-4.94
31709,1428,26416,95,100602,35.00,-7.24,-4.93
31731,1255,26416,77,100484,35.00,-7.24,-4.95
31753,1077,26416,71,100397,35.00,-7.27,-4.95
31775,1137,26416,82,100338,35.00,-7.22,-4.92
31797,1286,26416,105,100334,35.00,-7.25,-4.93
31819,1352,26416,120,100386,35.00,-7.25,-4.96
31841,1432,26416,133,100520,35.00,-7.26,-4.96
31863,1443,26416,145,100657,35.00,-7.26,-4.94
31885,1847,26416,149,100753,35.00,-7.24,-4.90
31907,2257,26416,146,100817,35.00,-7.25,-4.93
31929,2357,26416,127,100871,35.00,-7.26,-4.90
31970,2607,26416,127,101044,35.00,-7.24,-4.93
31992,2585,26416,126,101130,35.00,-7.22,-4.92
32713,2471,26416,133,101207,35.40,-7.23,-4.95
32752,1827,27312,147,101145,35.00,-7.27,-4.98
32774,2429,27312,184,101220,35.00,-7.25,-4.93
32796,2837,27312,205,101297,35.00,-7.28,-4.95
32818,2933,27312,243,101363,35.00,-7.26,-4.91
32840,3409,27312,281,101435,35.00,-7.24,-4.96
32862,3449,27312,294,101489,35.00,-7.27,-4.94
32884,2762,27312,251,101548,35.00,-7.23,-4.95
32906,2148,27312,219,101594,35.00,-7.22,-4.93
32928,1955,27312,202,101642,35.00,-7.25,-4.96
32950,2073,27312,215,101685,35.00,-7.24,-5.00
32992,1925,28080,150,101903,35.00,-7.27,-4.93
33733,603,28080,87,101958,35.24,-7.25,-4.93
33774,1951,28784,149,102133,35.00,-7.30,-4.92
33796,1870,28592,147,102025,35.00,-7.21,-4.92
33818,1637,28592,139,101706,35.00,-7.25,-4.91
33840,1361,28784,139,101271,35.00,-7.28,-4.94
33862,1233,28784,146,100899,35.00,-7.24,-4.95
33884,1336,28784,171,100671,35.00,-7.26,-4.91
33906,1432,28784,169,100535,35.00,-7.27,-4.95
33928,1517,28592,167,100452,35.00,-7.28,-4.97
33950,1384,28784,143,100390,35.00,-7.30,-4.93
33972,1187,28592,118,100352,35.00,-7.23,-4.92
33994,841,28784,91,100389,35.00,-7.26,-4.95
34035,738,28784,87,100713,35.00,-7.23,-4.95
34057,1097,28784,83,100819,35.00,-7.25,-4.94
34079,1273,28784,107,100883,35.00,-7.23,-4.94
34101,1427,28784,136,100942,35.00,-7.27,-4.95
34123,1337,28784,137,101010,35.00,-7.26,-4.91
34145,1205,28784,147,101067,35.00,-7.25,-4.97
34167,1403,28784,161,101140,35.00,-7.27,-4.94
34189,1883,28784,191,101206,35.00,-7.25,-4.95
34211,2727,28784,231,101282,35.00,-7.22,-4.95
34233,3847,28784,286,101365,35.00,-7.21,-4.91
34275,3867,28784,265,101607,35.00,-7.26,-4.95
34297,1879,28784,109,101679,35.00,-7.24,-4.96
34319,1330,28784,98,101744,35.00,-7.25,-4.98
34341,797,28784,92,101815,35.00,-7.24,-4.93
34363,788,28784,103,101865,35.00,-7.26,-4.95
34385,933,28784,125,101933,35.00,-7.25,-4.96
34407,1189,28784,153,102002,35.00,-7.23,-4.94
34429,1353,28784,149,102081,35.00,-7.30,-4.95
34451,1197,28784,136,102142,35.00,-7.27,-4.94
34473,1531,28784,152,102223,35.00,-7.26,-4.97
34495,2375,28784,179,102280,35.00,-7.24,-4.91
34536,2461,28784,167,101966,35.00,-7.26,-4.93
34558,1741,28784,108,101532,35.00,-7.26,-4.94
34580,1689,28784,110,101130,35.00,-7.24,-4.95
34602,1461,28784,110,100850,35.00,-7.25,-4.89
34624,1621,28784,142,100692,35.00,-7.27,-4.95
34646,1752,28784,165,100574,35.00,-7.25,-4.96
34668,2205,28784,184,100499,35.00,-7.21,-4.95
34690,2281,28784,192,100442,35.00,-7.25,-4.96
34712,2506,28784,197,100441,35.00,-7.27,-4.96
34734,2475,28784,182,100495,35.00,-7.28,-4.96
34777,2493,28784,165,100860,35.00,-7.23,-4.96
34799,2439,28784,141,100940,35.00,-7.25,-4.94
34821,1823,28784,127,101013,35.00,-7.24,-4.95
34843,1811,28784,136,101068,35.00,-7.24,-4.95
34865,1423,28784,147,101138,35.00,-7.27,-4.94
34887,1493,28784,155,101206,35.00,-7.25,-4.96
34909,1439,28784,167,101283,35.00,-7.27,-4.92
34931,1533,28784,155,101348,35.00,-7.24,-4.92
34953,1711,28784,153,101435,35.00,-7.24,-4.93
34975,1759,29296,138,101515,35.00,-7.24,-4.92
35518,1543,29296,119,101737,35.16,-7.24,-4.94
35559,2902,28784,183,100965,35.00,-7.24,-4.91
35581,2565,28784,179,101035,35.00,-7.24,-4.96
35603,2389,29296,183,101105,35.00,-7.24,-4.94
35625,2333,28784,203,101173,35.00,-7.28,-4.91
35647,2086,28784,215,101250,35.00,-7.27,-4.94
35669,1983,28784,218,101308,35.00,-7.30,-4.92
35691,2053,28784,219,101387,35.00,-7.27,-4.97
35713,2093,28784,210,101467,35.00,-7.25,-4.94
35735,2057,28784,192,101529,35.00,-7.25,-4.92
35757,2019,28784,181,101585,35.00,-7.25,-4.92
35799,1945,29296,173,101754,35.00,-7.24,-4.95
35821,1835,29296,160,101798,35.00,-7.24,-4.93
35843,1497,29296,167,101852,35.00,-7.25,-4.96
35865,1197,29296,166,101925,35.00,-7.27,-4.92
35887,1095,29296,175,101988,35.00,-7.25,-5.00
35909,979,29296,179,102055,35.00,-7.24,-4.95
35931,787,28784,173,102105,35.00,-7.24,-4.93
35953,632,29296,159,102158,35.00,-7.21,-4.90
35975,441,29296,136,102190,35.00,-7.25,-4.92
35997,346,28784,115,102147,35.00,-7.25,-4.96
36040,270,29296,101,101056,35.00,-7.20,-4.95
36062,30,28784,79,100787,35.00,-7.24,-4.93
36084,27,29296,89,100641,35.00,-7.26,-4.94
36106,0,29296,99,100536,35.00,-7.23,-4.97
36128,0,29296,111,100479,35.00,-7.25,-4.93
36150,242,29296,113,100419,35.00,-7.24,-5.00
36172,435,29296,118,100418,35.00,-7.22,-5.00
36194,665,29296,107,100471,35.00,-7.25,-4.93
36216,773,29296,92,100593,35.00,-7.23,-4.94
36238,1096,29296,89,100720,35.00,-7.26,-4.90
36280,1293,28784,85,100936,35.00,-7.23,-4.92
36302,1509,29296,87,100979,35.00,-7.26,-4.97
36324,1695,28784,105,101050,35.00,-7.29,-4.95
36346,1828,29296,118,101116,35.00,-7.26,-4.92
36368,1851,28784,139,101183,35.00,-7.24,-4.94
36390,2108,28784,153,101243,35.00,-7.22,-4.95
36412,2331,29296,157,101322,35.00,-7.24,-4.93
36434,2649,29296,159,101399,35.00,-7.22,-4.95
36456,2860,29296,157,101466,35.00,-7.25,-4.92
36478,2887,29296,157,101549,35.00,-7.26,-4.94
36500,2953,29296,153,101616,35.00,-7.25,-4.97
36541,3038,29296,153,101787,35.00,-7.26,-4.96
36563,2972,29296,151,101843,35.00,-7.23,-4.96
36585,3567,29296,183,101910,35.00,-7.23,-4.94
36607,3304,29296,189,101964,35.00,-7.21,-4.93
36629,2766,29296,201,102020,35.00,-7.25,-4.94
36651,2583,29296,203,102081,35.00,-7.24,-4.93
36673,2719,29296,206,102142,35.00,-7.25,-4.95
36695,2887,29296,205,102183,35.00,-7.19,-4.93
36717,2996,29296,202,102200,35.00,-7.23,-4.93
36739,2823,29296,181,102039,35.00,-7.27,-4.94
36781,2537,29296,168,100868,35.00,-7.26,-4.96
36803,2231,29296,154,100657,35.00,-7.21,-4.91
36825,2264,29296,171,100534,35.00,-7.26,-4.99
36847,1785,29296,169,100471,35.00,-7.25,-4.91
36869,1653,29296,180,100409,35.00,-7.26,-4.92
36891,1511,29296,181,100395,35.00,-7.23,-4.94
36913,1597,29296,182,100417,35.00,-7.27,-4.94
36935,1678,29296,181,100508,35.00,-7.27,-4.91
36957,1670,29296,163,100648,35.00,-7.24,-4.94
36979,1803,30064,153,100764,35.00,-7.27,-4.95
37558,1931,29296,147,100834,35.34,-7.26,-4.91
37589,1765,29296,139,100468,35.00,-7.24,-4.96
37611,1453,29296,151,100410,35.00,-7.25,-4.94
37633,1642,29296,154,100424,35.00,-7.24,-4.96
37655,1939,29296,168,100473,35.00,-7.27,-4.91
37677,2015,29296,157,100608,35.00,-7.26,-4.95
37699,2121,30064,151,100746,35.00,-7.21,-4.95
37721,2475,30064,143,100845,35.00,-7.14,-4.90
37743,2121,30064,137,100918,35.00,-7.20,-4.84
37784,1979,30064,127,101071,35.00,-7.24,-4.94
37806,2351,30064,143,101138,35.00,-7.22,-4.96
37828,2227,30064,155,101211,35.00,-7.23,-4.94
37850,2079,30064,168,101284,35.00,-7.26,-4.90
37872,2156,30064,184,101370,35.00,-7.27,-4.91
37894,2267,30064,189,101441,35.00,-7.24,-4.94
37916,2396,30064,189,101535,35.00,-7.22,-4.90
37938,2535,30064,188,101603,35.00,-7.26,-4.96
37960,2675,30064,199,101679,35.00,-7.22,-4.95
37982,2807,30064,181,101754,35.00,-7.22,-4.91
38025,2937,30064,189,101904,35.00,-7.24,-4.96
38047,2943,30064,205,101950,35.00,-7.23,-4.95
38069,2943,30064,231,102010,35.00,-7.26,-4.94
38091,2231,30064,189,102062,35.00,-7.26,-4.92
38113,1867,30064,183,102129,35.00,-7.24,-4.91
38135,1871,30064,189,102190,35.00,-7.23,-4.94
38157,1843,30064,187,102247,35.00,-7.24,-4.94
38179,1749,30064,167,102271,35.00,-7.29,-4.99
38201,1677,30064,155,102185,35.00,-7.24,-4.93
38223,1767,30064,149,101879,35.00,-7.27,-4.93
38265,1743,30064,143,100731,35.00,-7.24,-4.95
38287,1221,30064,121,100537,35.00,-7.25,-4.95
38309,1134,30064,141,100425,35.00,-7.25,-4.91
38331,1223,30064,163,100341,35.00,-7.28,-4.93
38353,1320,30064,181,100290,35.00,-7.28,-4.94
38375,1425,29296,183,100271,35.00,-7.26,-4.93
38397,1373,30064,168,100336,35.00,-7.26,-4.92
38419,1331,30064,151,100460,35.00,-7.25,-4.95
38441,1445,30064,136,100589,35.00,-7.27,-4.96
38463,1557,30064,124,100673,35.00,-7.24,-4.93
38485,1439,30064,121,100732,35.00,-7.22,-4.93
38526,1399,30064,123,100865,35.00,-7.25,-4.92
38548,1254,30064,109,100951,35.00,-7.24,-4.92
38570,1127,30064,127,101034,35.00,-7.26,-4.94
38592,1183,30064,143,101095,35.00,-7.24,-4.93
38614,1177,30064,151,101168,35.00,-7.24,-4.96
38636,1187,30576,154,101232,35.00,-7.24,-4.94
38658,1375,30064,153,101302,35.00,-7.27,-4.94
38680,1431,30064,141,101358,35.00,-7.24,-4.90
38702,1693,30064,139,101420,35.00,-7.26,-4.96
38724,1623,30064,121,101472,35.00,-7.27,-4.94
38766,1606,30576,119,101650,35.00,-7.26,-4.96
38788,1640,30576,120,101693,35.00,-7.24,-4.92
38810,1641,30576,134,101760,35.00,-7.25,-4.94
38832,1555,30576,141,101826,35.00,-7.24,-4.92
38854,1611,30576,156,101896,35.00,-7.24,-4.96
38876,1749,30576,159,101956,35.00,-7.24,-4.91
38898,1891,30576,167,102006,35.00,-7.26,-4.95
38920,1948,30576,151,101987,35.00,-7.26,-4.96
38942,2029,30576,146,101784,35.00,-7.30,-4.94
38964,2003,30576,123,101385,35.00,-7.23,-4.94
38986,2159,30064,126,100959,35.00,-7.24,-4.95
39027,2023,30064,121,100347,35.00,-7.22,-4.94
39049,2174,30064,135,100243,35.00,-7.27,-4.97
39071,2073,30064,143,100159,35.00,-7.27,-4.92
39093,1908,30064,156,100127,35.00,-7.19,-4.94
39115,1913,30064,159,100137,35.00,-7.26,-4.92
39137,2047,30064,173,100226,35.00,-7.26,-5.00
39159,2207,30064,171,100368,35.00,-7.21,-4.91
39181,2202,30064,165,100482,35.00,-7.24,-4.93
39203,2216,30064,147,100547,35.00,-7.30,-4.95
39225,2063,30064,136,100584,35.00,-7.24,-4.94
39268,1875,30576,123,100724,35.00,-7.24,-4.97
39290,1672,30064,127,100804,35.00,-7.23,-4.96
39312,1593,30576,141,100894,35.00,-7.26,-4.94
39334,1609,30576,163,100955,35.00,-7.27,-4.93
39356,1609,30576,164,101040,35.00,-7.27,-4.91
39378,1694,30576,164,101109,35.00,-7.25,-4.95
39400,1909,30576,156,101192,35.00,-7.24,-4.95
39422,1957,30576,149,101270,35.00,-7.23,-4.94
39444,1769,30576,133,101353,35.00,-7.23,-4.94
39466,1726,30576,123,101424,35.00,-7.29,-4.92
39508,1715,30576,118,101616,35.00,-7.29,-4.94
39530,1789,30576,124,101663,35.00,-7.26,-4.91
39552,1507,30576,134,101733,35.00,-7.28,-4.94
39574,1353,30576,147,101806,35.00,-7.26,-4.93
39596,1467,30064,153,101888,35.00,-7.26,-4.93
39618,1644,30064,159,101934,35.00,-7.25,-4.96
39640,1982,30576,151,101982,35.00,-7.23,-4.91
39662,1929,30064,153,101906,35.00,-7.26,-4.94
39684,1767,30576,125,101607,35.00,-7.27,-4.96
39706,1769,30576,121,101156,35.00,-7.26,-4.95
39728,1899,30576,118,100752,35.00,-7.25,-4.97
39769,1997,30576,125,100179,35.00,-7.28,-4.95
39791,1742,30576,125,100090,35.00,-7.23,-4.94
39813,1707,30576,150,100027,35.00,-7.23,-4.94
39835,1879,30576,159,100004,35.00,-7.26,-4.90
39857,1903,30576,169,100057,35.00,-7.25,-4.97
39879,1864,30576,167,100170,35.00,-7.27,-4.94
39901,1935,30576,167,100318,35.00,-7.23,-4.96
39923,2123,30576,157,100415,35.00,-7.27,-4.92
39945,2199,30576,143,100494,35.00,-7.22,-4.95
39967,2235,30576,139,100534,35.00,-7.23,-4.96
40363,2126,30576,139,100743,35.13,-7.21,-4.93
40391,1547,30576,138,101848,35.00,-7.25,-4.93
40413,1293,30960,133,101664,35.00,-7.25,-4.92
40435,1269,30960,141,101255,35.00,-7.25,-5.01
40457,1225,30576,147,100841,35.00,-7.28,-4.95
40479,1075,30576,153,100516,35.00,-7.24,-4.95
40501,1229,30576,151,100323,35.00,-7.22,-4.93
40523,1330,30576,135,100221,35.00,-7.26,-4.92
40545,1533,30576,121,100149,35.00,-7.24,-4.94
40567,1503,30576,111,100086,35.00,-7.25,-4.94
40589,1245,30576,102,100086,35.00,-7.27,-4.92
40631,1193,30576,103,100414,35.00,-7.26,-4.96
40653,601,30064,105,100521,35.00,-7.26,-4.95
40675,1903,28784,137,100580,35.00,-7.24,-4.98
40697,1739,28784,157,100630,35.00,-7.28,-4.96
40719,1629,28784,155,100679,35.00,-7.28,-4.94
40741,1933,28784,159,100735,35.00,-7.27,-4.99
40763,2248,28784,157,100816,35.00,-7.25,-4.93
40785,2151,28784,151,100887,35.00,-7.30,-4.91
40807,2001,29296,125,100961,35.00,-7.26,-4.94
40829,2431,29296,126,101052,35.00,-7.24,-4.95
40872,1774,29296,114,101328,35.00,-7.25,-4.92
40894,1885,29296,139,101432,35.00,-7.24,-4.93
40916,1743,29296,147,101528,35.00,-7.30,-4.95
40938,1770,29296,163,101627,35.00,-7.24,-4.93
40960,1813,28784,167,101745,35.00,-7.24,-4.92
40982,1970,29296,166,101831,35.00,-7.26,-4.94
41383,2063,29296,155,101909,35.90,-7.23,-4.91
41413,1669,29296,125,101236,35.00,-7.20,-4.90
41435,1318,29296,117,101285,35.00,-7.21,-4.97
41457,1233,29296,133,101336,35.00,-7.29,-4.97
41479,1321,29296,140,101408,35.00,-7.24,-4.95
41501,1577,29296,144,101482,35.00,-7.27,-4.94
41523,1571,29296,139,101555,35.00,-7.27,-4.94
41545,1699,29296,137,101628,35.00,-7.23,-4.92
41567,1819,28784,121,101709,35.00,-7.25,-4.92
41589,1845,29296,115,101792,35.00,-7.24,-4.96
41611,1771,29296,109,101878,35.00,-7.25,-4.92
41654,1724,29296,111,102081,35.00,-7.22,-4.96
41676,1716,28784,119,102153,35.00,-7.25,-4.98
41698,1727,29296,146,102205,35.00,-7.24,-4.90
41720,1641,29296,149,102253,35.00,-7.24,-4.93
41742,1759,28784,153,102299,35.00,-7.30,-4.94
41764,1961,29296,153,102356,35.00,-7.24,-4.99
41786,2143,29296,143,102432,35.00,-7.23,-4.93
41808,2239,29296,139,102509,35.00,-7.24,-4.92
41830,2357,29296,137,102578,35.00,-7.24,-4.95
41852,2268,29296,136,102633,35.00,-7.25,-4.98
41894,2041,29296,133,102534,35.00,-7.24,-4.93
41916,2093,28784,149,102175,35.00,-7.22,-4.91
41938,2057,28784,163,101749,35.00,-7.23,-4.95
41960,2437,28784,181,101423,35.00,-7.22,-4.94
41982,1996,28784,179,101235,35.00,-7.27,-4.90
42403,2518,28784,181,101145,36.11,-7.23,-4.96
42435,1237,28784,159,102251,35.00,-7.23,-4.95
42457,1387,28784,135,102299,35.00,-7.21,-4.93
42479,871,28784,147,102332,35.00,-7.27,-4.95
42501,682,28784,141,102380,35.00,-7.25,-4.93
42523,1139,28784,153,102437,35.00,-7.28,-4.95
42545,1310,28784,156,102516,35.00,-7.25,-4.95
42567,1277,28784,145,102569,35.00,-7.27,-4.92
42589,1373,28784,141,102630,35.00,-7.28,-4.96
42611,1228,28784,125,102621,35.00,-7.23,-4.94
42633,1707,28784,135,102483,35.00,-7.25,-4.94
42655,1125,28592,109,102121,35.00,-7.24,-4.97
42696,1020,28592,117,101032,35.00,-7.25,-4.94
42718,1129,28080,118,100898,35.00,-7.23,-4.91
42740,879,28080,119,100833,35.00,-7.26,-4.98
42762,1070,28080,137,100815,35.00,-7.22,-4.94
42784,989,28080,133,100820,35.00,-7.25,-4.94
42806,1423,28080,134,100884,35.00,-7.29,-4.95
42828,1519,28080,126,101016,35.00,-7.24,-4.97
42850,1611,28080,115,101114,35.00,-7.25,-4.93
42872,1555,28080,106,101172,35.00,-7.28,-4.95
42894,1435,28080,103,101205,35.00,-7.27,-4.93
42916,1315,28080,107,101221,35.00,-7.28,-4.94
42957,1368,28080,116,101340,35.00,-7.25,-4.93
42979,2249,28080,141,101418,35.00,-7.26,-4.96
43423,1583,28080,153,101498,35.03,-7.24,-4.95
43458,1870,28592,170,100730,35.00,-7.25,-4.95
43480,1868,28592,143,100669,35.00,-7.28,-4.91
43502,1631,28592,163,100653,35.00,-7.25,-4.90
43524,1991,28080,167,100692,35.00,-7.27,-4.94
43546,2041,28080,179,100801,35.00,-7.25,-4.94
43568,2035,28080,157,100906,35.00,-7.24,-4.91
43590,1884,28080,139,101004,35.00,-7.24,-4.95
43612,1742,28080,115,101061,35.00,-7.26,-4.92
43634,1873,28592,121,101122,35.00,-7.26,-4.95
43656,1997,28592,119,101176,35.00,-7.24,-4.96
43699,1743,28592,133,101395,35.00,-7.29,-4.95
43721,1615,28592,139,101474,35.00,-7.25,-4.93
43743,1554,28592,156,101562,35.00,-7.27,-4.93
43765,1565,28592,165,101635,35.00,-7.28,-4.89
43787,1701,28592,168,101717,35.00,-7.27,-4.95
43809,1879,28080,152,101786,35.00,-7.29,-4.94
43831,2299,28080,151,101873,35.00,-7.27,-4.94
43853,3003,28080,159,101937,35.00,-7.24,-4.94
43875,1531,27312,115,101994,35.00,-7.23,-4.92
43897,1657,27312,119,102064,35.00,-7.28,-4.94
43939,1852,27312,137,102297,35.00,-7.24,-4.94
43961,1645,27312,143,102355,35.00,-7.25,-4.97
43983,1587,27312,155,102412,35.00,-7.26,-4.96
44699,1671,27312,160,102469,35.84,-7.24,-4.95
44741,1519,28080,115,102047,35.00,-7.25,-4.93
44763,1670,28080,135,101631,35.00,-7.23,-4.92
44785,1621,28080,147,101223,35.00,-7.27,-4.91
44807,1832,28080,152,100929,35.00,-7.24,-4.92
44829,2117,28080,155,100741,35.00,-7.29,-4.94
44851,2379,28080,152,100605,35.00,-7.25,-4.91
44873,2587,28080,158,100515,35.00,-7.24,-4.96
44895,2489,28080,137,100469,35.00,-7.24,-4.94
44917,2237,28592,125,100449,35.00,-7.22,-4.95
44939,2211,28080,122,100489,35.00,-7.24,-4.91
44982,1990,28592,135,100778,35.00,-7.24,-4.94
45719,1781,28080,140,100849,35.63,-7.26,-4.94
45744,1822,28592,117,100875,35.00,-7.24,-4.90
45766,1357,28592,143,100971,35.00,-7.25,-4.97
45788,1463,28592,155,101040,35.00,-7.22,-4.94
45810,1683,28592,165,101128,35.00,-7.24,-4.94
45832,2005,28592,159,101199,35.00,-7.27,-4.97
45854,1721,28592,127,101278,35.00,-7.26,-4.94
45876,1723,28592,117,101362,35.00,-7.22,-4.94
45898,1660,28592,109,101461,35.00,-7.21,-4.95
45920,1655,28784,109,101520,35.00,-7.21,-4.94
45942,1568,28592,107,101588,35.00,-7.23,-4.96
45984,1429,28592,115,101803,35.00,-7.26,-4.95
46740,1503,28784,135,101869,34.99,-7.23,-4.92
46766,1356,28784,115,102083,35.00,-7.25,-4.91
46788,1044,28784,145,102122,35.00,-7.25,-4.94
46810,1041,28592,151,102100,35.00,-7.24,-4.93
46832,1195,28784,159,101876,35.00,-7.24,-4.96
46854,1363,28784,152,101481,35.00,-7.25,-4.96
46876,1382,28784,135,101068,35.00,-7.24,-4.92
46898,1397,28784,115,100752,35.00,-7.21,-4.96
46920,1358,28784,105,100557,35.00,-7.24,-4.91
46942,1385,28784,109,100424,35.00,-7.26,-4.97
46964,1354,28784,115,100307,35.00,-7.26,-4.93
47506,1139,28784,118,100236,35.35,-7.25,-4.96
47548,2009,28784,167,101758,35.00,-7.24,-4.92
47570,2255,28784,204,101350,35.00,-7.24,-4.95
47592,2261,28784,211,100986,35.00,-7.27,-4.93
47614,2359,28784,219,100736,35.00,-7.25,-4.96
47636,2361,28784,215,100583,35.00,-7.24,-4.97
47658,2447,28784,212,100462,35.00,-7.24,-4.91
47680,2607,28784,201,100383,35.00,-7.28,-4.92
47702,2311,28784,171,100330,35.00,-7.27,-4.96
47724,1963,28784,155,100325,35.00,-7.24,-4.97
47746,1613,28784,153,100414,35.00,-7.22,-4.94
47788,1331,28784,154,100764,35.00,-7.26,-4.96
47810,1055,28784,157,100819,35.00,-7.26,-4.96
47832,1034,28784,154,100869,35.00,-7.27,-4.96
47854,1115,28784,168,100924,35.00,-7.24,-4.93
47876,1336,28784,159,100983,35.00,-7.25,-4.96
47898,1477,28784,157,101062,35.00,-7.24,-4.98
47920,1407,28784,138,101121,35.00,-7.26,-4.92
47942,1383,28784,123,101188,35.00,-7.24,-4.94
47964,1204,28784,108,101247,35.00,-7.28,-4.95
47986,1051,28784,117,101323,35.00,-7.26,-4.92
48525,919,28784,119,101399,35.99,-7.26,-4.94
48555,2265,28784,154,100794,35.00,-7.25,-4.93
48577,2152,28784,184,100843,35.00,-7.25,-4.92
48599,2299,28784,178,100923,35.00,-7.25,-4.92
48621,2367,29296,171,100987,35.00,-7.26,-4.98
48643,2409,28784,159,101059,35.00,-7.28,-4.93
48665,2163,28784,151,101135,35.00,-7.24,-4.96
48687,1911,28784,147,101199,35.00,-7.26,-4.95
48709,1690,28784,150,101271,35.00,-7.24,-4.98
48751,1527,29296,159,101482,35.00,-7.26,-4.91
48773,1311,28784,164,101548,35.00,-7.23,-4.95
48795,1433,28784,173,101608,35.00,-7.27,-4.91
48817,1709,28784,189,101665,35.00,-7.27,-4.94
48839,2203,28784,199,101712,35.00,-7.28,-4.94
48861,2285,28784,199,101766,35.00,-7.25,-4.94
48883,2364,28784,189,101843,35.00,-7.27,-4.98
48905,2956,28784,211,101918,35.00,-7.26,-4.95
48927,2879,28784,201,101992,35.00,-7.24,-4.92
48949,2159,28784,166,102057,35.00,-7.24,-4.94
48991,1338,28784,149,101816,35.00,-7.26,-4.95
49546,1119,28784,159,101401,34.86,-7.19,-4.95
49576,842,28784,86,101970,35.00,-7.24,-4.89
49598,890,28784,139,102048,35.00,-7.25,-4.91
49620,1439,28784,146,102138,35.00,-7.28,-4.95
49642,1768,28784,145,102216,35.00,-7.27,-4.93
49664,1885,28784,121,102293,35.00,-7.27,-4.96
49686,1531,28784,107,102334,35.00,-7.25,-4.94
49708,1673,28784,114,102306,35.00,-7.26,-4.96
49730,1660,28784,127,102067,35.00,-7.25,-4.96
49752,1786,28784,142,101650,35.00,-7.22,-4.95
49793,1822,28784,153,100741,35.00,-7.28,-4.94
49815,1625,28784,151,100619,35.00,-7.26,-4.92
49837,1608,28784,152,100521,35.00,-7.22,-4.94
49859,1651,28784,162,100448,35.00,-7.27,-4.92
49881,1695,28784,138,100436,35.00,-7.22,-4.97
49903,1737,28784,151,100511,35.00,-7.26,-4.94
49925,1877,28784,117,100629,35.00,-7.26,-4.95
49947,1848,28784,116,100758,35.00,-7.27,-4.93
49969,1755,28784,107,100859,35.00,-7.25,-4.91
49991,1661,28784,121,100922,35.00,-7.26,-4.97
50566,1619,28784,125,100978,35.11,-7.26,-4.95
50597,2226,28784,145,100393,35.00,-7.26,-4.94
50619,1733,28784,179,100350,35.00,-7.26,-4.93
50641,1887,28784,175,100376,35.00,-7.29,-4.94
50663,1945,28784,165,100460,35.00,-7.23,-4.95
50685,1979,29296,153,100549,35.00,-7.24,-4.92
50707,2003,29296,146,100598,35.00,-7.26,-4.92
50729,1952,28784,140,100603,35.00,-7.21,-4.95
50751,1925,29296,137,100588,35.00,-7.24,-4.93
50773,1865,28784,147,100570,35.00,-7.21,-4.93
50795,1833,28784,164,100549,35.00,-7.26,-4.95
50836,1479,28784,167,100470,35.00,-7.24,-4.98
50858,1705,28784,179,100484,35.00,-7.24,-4.92
50880,1613,28784,179,100502,35.00,-7.26,-4.92
50902,1714,28784,175,100534,35.00,-7.28,-4.97
50924,1855,28592,165,100585,35.00,-7.23,-4.96
50946,1869,28592,152,100624,35.00,-7.24,-4.94
50968,1758,28592,139,100713,35.00,-7.29,-4.96
50990,1621,28592,133,100797,35.00,-7.24,-4.94
51587,1677,28592,143,100903,35.97,-7.24,-4.94
51618,821,28592,149,100585,35.00,-7.19,-4.88
51640,3725,28592,221,100589,35.00,-7.36,-5.04
51662,3737,28592,235,100607,35.00,-6.85,-4.90
51684,3743,28592,239,100626,35.00,-7.32,-4.96
51706,2763,28592,223,100664,35.00,-7.18,-5.00
51728,3783,28592,219,100695,35.00,-7.22,-4.96
51750,3773,28592,210,100747,35.00,-7.28,-4.95
51772,3763,28592,199,100796,35.00,-7.20,-4.97
51794,2661,28592,169,100865,35.00,-7.22,-5.07
51816,2920,28592,189,100931,35.00,-7.28,-4.96
51858,2810,28592,204,101196,35.00,-7.20,-5.00
51880,1877,28080,189,101264,35.00,-7.21,-4.97
51902,1339,28592,185,101313,35.00,-7.26,-4.95
51924,1260,28592,183,101327,35.00,-7.27,-4.97
51946,2595,28080,205,101175,35.00,-7.21,-4.97
51968,2471,28080,186,100810,35.00,-7.22,-4.98
51990,2267,28080,165,100330,35.00,-7.22,-4.97
52353,1447,28080,141,99931,36.54,-7.25,-4.94
52381,2057,28080,133,100757,35.00,-7.22,-4.96
52403,1195,28080,151,100897,35.00,-7.19,-4.99
52425,1925,28592,165,101026,35.00,-7.22,-4.99
52447,1972,28592,155,101170,35.00,-7.22,-4.98
52469,1987,28592,155,101304,35.00,-7.19,-5.04
52491,2655,28592,156,101411,35.00,-7.22,-4.97
52513,2377,28592,155,101517,35.00,-7.23,-5.00
52535,2695,28592,171,101596,35.00,-7.21,-4.99
52557,1880,28592,157,101661,35.00,-7.21,-4.97
52579,2133,28592,173,101718,35.00,-7.24,-4.95
52620,2223,28592,191,101879,35.00,-7.20,-4.97
52642,2164,28592,201,101902,35.00,-7.22,-4.97
52664,2245,28592,212,101926,35.00,-7.22,-4.98
52686,2281,28592,207,101795,35.00,-7.22,-5.01
52708,2675,28080,199,101454,35.00,-7.24,-5.00
52730,2378,28592,181,101055,35.00,-7.24,-4.94
52752,2375,28592,167,100728,35.00,-7.25,-4.99
52774,2001,28592,155,100543,35.00,-7.24,-4.98
52796,2205,28592,165,100397,35.00,-7.21,-4.99
52818,1598,28592,159,100281,35.00,-7.24,-4.98
52840,1461,28592,171,100187,35.00,-7.23,-4.97
52881,1545,28592,187,100168,35.00,-7.22,-4.98
52903,1725,28592,200,100271,35.00,-7.22,-4.96
52925,1545,28592,184,100337,35.00,-7.21,-4.99
52947,1525,28592,181,100360,35.00,-7.22,-4.99
52969,1311,28592,166,100380,35.00,-7.25,-4.97
52991,1581,28592,154,100388,35.00,-7.23,-5.02
53374,1592,28784,146,100437,34.78,-7.21,-4.98
53402,967,28592,90,101756,35.00,-7.21,-4.97
53424,1489,28592,135,101602,35.00,-7.24,-5.01
53446,1498,28592,149,101232,35.00,-7.21,-4.99
53468,1933,28592,142,100811,35.00,-7.27,-4.94
53490,2129,28592,138,100465,35.00,-7.25,-4.97
53512,2860,28592,135,100238,35.00,-7.25,-4.98
53534,2825,28592,136,100116,35.00,-7.20,-4.98
53556,2227,28592,125,100023,35.00,-7.24,-5.02
53578,2441,28592,138,99966,35.00,-7.18,-5.00
53600,2717,28592,153,99960,35.00,-7.23,-4.98
53622,2645,28592,171,100003,35.00,-7.26,-4.97
53663,2309,28592,175,100331,35.00,-7.22,-4.98
53685,2936,28080,202,100451,35.00,-7.20,-5.00
53707,2991,28592,215,100534,35.00,-7.22,-4.96
53729,3119,28592,201,100590,35.00,-7.23,-4.96
53751,2877,28592,185,100659,35.00,-7.19,-4.95
53773,3341,28592,184,100728,35.00,-7.22,-5.00
53795,3144,28784,183,100815,35.00,-7.19,-4.99
53817,2693,28784,173,100893,35.00,-7.24,-4.98
53839,2297,28592,173,100968,35.00,-7.26,-4.96
53861,2119,28592,175,101060,35.00,-7.25,-4.98
53903,1928,28592,189,101291,35.00,-7.21,-5.00
53925,1738,28592,183,101365,35.00,-7.20,-4.97
53947,1643,28784,189,101441,35.00,-7.22,-4.97
53969,1869,28784,185,101521,35.00,-7.24,-4.95
53991,1655,28592,167,101578,35.00,-7.23,-4.95
54395,1421,28784,149,101645,35.80,-7.22,-4.97
54425,2100,28592,133,100921,35.00,-7.22,-5.01
54447,1865,28592,168,101027,35.00,-7.22,-4.97
54469,2059,28592,172,101101,35.00,-7.22,-4.98
54491,2523,28784,167,101183,35.00,-7.22,-4.97
54513,1977,28784,151,101263,35.00,-7.26,-4.98
54535,2405,28784,155,101351,35.00,-7.23,-4.99
54557,2261,28592,153,101453,35.00,-7.19,-4.99
54579,1939,28784,140,101544,35.00,-7.25,-5.01
54601,1519,28784,141,101634,35.00,-7.23,-4.98
54623,1629,28784,151,101722,35.00,-7.22,-4.95
54665,1655,28784,169,101988,35.00,-7.20,-4.99
54687,1717,28592,169,102057,35.00,-7.26,-4.96
54709,1635,28592,167,102133,35.00,-7.22,-4.99
54731,1706,28592,163,102213,35.00,-7.22,-4.98
54753,1813,28592,147,102289,35.00,-7.25,-4.97
54775,1907,28592,135,102346,35.00,-7.25,-5.01
54797,1887,28784,137,102422,35.00,-7.22,-4.94
54819,1791,28784,133,102496,35.00,-7.28,-4.95
54841,1935,28784,143,102570,35.00,-7.26,-4.97
54863,1523,28784,147,102647,35.00,-7.24,-4.97
54906,1311,28784,153,102801,35.00,-7.21,-5.00
54928,1887,28784,181,102648,35.00,-7.25,-4.96
54950,1965,28784,181,102314,35.00,-7.24,-4.95
54972,2129,28784,173,101906,35.00,-7.24,-4.95
54994,2076,28784,165,101583,35.00,-7.25,-4.99
55416,2587,28784,159,101364,35.71,-7.23,-5.01
55447,1379,28592,115,102479,35.00,-7.23,-4.99
55469,1177,28592,146,102562,35.00,-7.20,-4.97
55491,1315,28592,147,102639,35.00,-7.26,-4.97
55513,1213,28592,131,102707,35.00,-7.23,-4.98
55535,1425,28784,127,102767,35.00,-7.22,-4.96
55557,1362,28784,109,102831,35.00,-7.20,-4.95
55579,1673,28784,119,102906,35.00,-7.26,-4.97
55601,1845,28784,125,102983,35.00,-7.23,-5.01
55623,1973,28784,149,103055,35.00,-7.26,-5.00
55645,2121,28784,157,103115,35.00,-7.27,-5.01
55687,2195,28784,175,103015,35.00,-7.24,-4.96
55709,2430,28784,186,102661,35.00,-7.22,-5.00
55731,2680,28784,201,102291,35.00,-7.17,-4.96
55753,2405,28784,184,101987,35.00,-7.22,-5.01
55775,2811,28784,180,101800,35.00,-7.23,-5.01
55797,3091,28784,173,101666,35.00,-7.27,-5.00
55819,2343,28784,157,101549,35.00,-7.20,-4.96
55841,2138,28784,155,101481,35.00,-7.19,-4.95
55863,2602,28784,175,101448,35.00,-7.23,-5.04
55885,2769,28784,200,101472,35.00,-7.24,-5.01
55907,2456,28592,202,101570,35.00,-7.23,-4.94
55948,2339,28592,203,101817,35.00,-7.20,-5.00
55970,1577,28784,189,101832,35.00,-7.22,-4.98
55992,1509,28784,191,101874,35.00,-7.28,-4.98
56437,1215,28784,169,101926,36.88,-7.19,-4.98
56469,1509,28592,121,102456,35.00,-7.23,-4.96
56491,1187,28592,159,102113,35.00,-7.18,-5.00
56513,1353,28784,158,101881,35.00,-7.24,-5.00
56535,1624,28592,155,101731,35.00,-7.26,-4.96
56557,1811,28592,147,101618,35.00,-7.25,-4.95
56579,1875,28592,133,101555,35.00,-7.21,-4.95
56601,1949,28592,141,101518,35.00,-7.23,-4.97
56623,2039,28592,148,101552,35.00,-7.24,-4.99
56645,2005,28592,143,101655,35.00,-7.19,-4.95
56667,1935,28592,159,101779,35.00,-7.23,-4.96
56689,1599,28592,169,101899,35.00,-7.20,-4.95
56730,1773,28592,181,102055,35.00,-7.23,-4.99
56752,2015,28592,183,102118,35.00,-7.23,-5.03
56774,1942,28592,197,102180,35.00,-7.24,-4.96
56796,2013,28592,167,102250,35.00,-7.24,-5.00
56818,2013,28592,155,102324,35.00,-7.21,-4.99
56840,2094,28592,149,102405,35.00,-7.23,-4.99
56862,2039,28592,149,102505,35.00,-7.20,-5.00
56884,1830,28592,141,102585,35.00,-7.27,-4.98
56906,1833,28592,157,102663,35.00,-7.22,-4.95
56928,1720,28592,154,102740,35.00,-7.24,-4.98
56971,1529,28784,171,102964,35.00,-7.23,-4.96
56993,1701,28592,171,103020,35.00,-7.28,-4.97
57714,1743,28592,173,103085,35.65,-7.24,-4.94
57752,1822,28592,183,102890,35.00,-7.22,-4.95
57774,1815,28592,181,102941,35.00,-7.22,-5.00
57796,1945,28784,179,103004,35.00,-7.25,-4.99
57818,1934,28784,169,103067,35.00,-7.21,-4.96
57840,1947,28592,155,103134,35.00,-7.22,-4.98
57862,1939,28784,141,103212,35.00,-7.25,-5.04
57884,1927,28784,137,103272,35.00,-7.27,-4.97
57906,1805,28784,137,103325,35.00,-7.31,-5.00
57928,1688,28784,151,103276,35.00,-7.23,-4.99
57950,1594,28784,157,103051,35.00,-7.24,-4.96
57972,1483,28592,169,102669,35.00,-7.21,-5.00
58735,1711,28592,173,101827,35.52,-7.24,-4.96
58775,1527,28592,163,101545,35.00,-7.21,-4.97
58797,1501,28784,163,101434,35.00,-7.24,-5.00
58819,1659,28784,159,101347,35.00,-7.22,-4.98
58841,1783,28784,143,101312,35.00,-7.25,-4.96
58863,1700,29296,126,101332,35.00,-7.22,-4.96
58885,1911,28784,135,101410,35.00,-7.22,-4.99
58907,1595,28784,124,101531,35.00,-7.26,-4.97
58929,1555,28784,125,101620,35.00,-7.24,-4.93
58951,1491,28784,139,101671,35.00,-7.25,-4.99
58973,1568,28784,149,101706,35.00,-7.24,-4.97
59757,1723,28784,165,101861,35.26,-7.23,-4.96
59797,1269,28784,175,101683,35.00,-7.21,-4.99
59819,1263,28784,172,101769,35.00,-7.25,-5.02
59841,1269,28784,155,101845,35.00,-7.22,-4.97
59863,1227,28784,146,101929,35.00,-7.24,-4.97
59885,1098,28784,123,102008,35.00,-7.25,-5.01
59907,1109,28784,117,102093,35.00,-7.28,-4.98
59929,1006,28784,125,102163,35.00,-7.28,-4.99
59951,757,29296,110,102230,35.00,-7.22,-4.97
59973,665,29296,120,102280,35.00,-7.22,-4.96
59995,588,29296,131,102332,35.00,-7.26,-4.97
60523,647,29296,133,102396,35.39,-7.20,-4.97
60559,2979,29296,188,101834,35.00,-7.21,-5.01
60581,2711,28784,215,101922,35.00,-7.25,-4.96
60603,2812,28784,211,101999,35.00,-7.22,-4.96
60625,2571,29296,197,102064,35.00,-7.26,-4.98
60647,2427,28784,174,102138,35.00,-7.22,-5.00
60669,2268,29296,171,102194,35.00,-7.19,-4.96
60691,2334,29296,169,102278,35.00,-7.23,-5.00
60713,2189,29296,173,102330,35.00,-7.22,-4.96
60735,1957,29296,176,102388,35.00,-7.26,-4.96
60757,1829,28784,188,102449,35.00,-7.21,-4.96
60779,1789,29296,197,102531,35.00,-7.23,-4.96
60820,1776,29296,187,102725,35.00,-7.24,-4.99
60842,1769,29296,185,102782,35.00,-7.20,-4.97
60864,1747,29296,175,102797,35.00,-7.20,-4.99
60886,1573,29296,155,102625,35.00,-7.21,-4.96
60908,1491,29296,147,102259,35.00,-7.20,-5.00
60930,1458,29296,136,101834,35.00,-7.23,-4.94
60952,1322,29296,137,101488,35.00,-7.19,-4.97
60974,1181,28784,140,101264,35.00,-7.24,-4.91
60996,1197,28784,153,101128,35.00,-7.19,-4.96
61544,1368,28784,167,101021,35.03,-7.20,-4.99
61582,955,28784,104,102748,35.00,-7.24,-4.97
61604,1321,29296,121,102722,35.00,-7.23,-4.96
61626,1671,29296,118,102508,35.00,-7.25,-4.99
61648,1966,29296,111,102090,35.00,-7.24,-4.96
61670,2073,29296,114,101690,35.00,-7.24,-4.96
61692,2212,29296,117,101360,35.00,-7.22,-5.00
61714,2408,29296,133,101177,35.00,-7.21,-4.99
61736,2542,29296,143,101034,35.00,-7.26,-4.99
61758,2703,29296,168,100944,35.00,-7.22,-4.97
61780,2844,29296,183,100885,35.00,-7.27,-4.97
61822,3103,29296,198,101039,35.00,-7.22,-4.97
61844,3241,29296,205,101164,35.00,-7.23,-4.99
61866,3231,29296,204,101266,35.00,-7.24,-5.00
61888,3167,29296,189,101324,35.00,-7.24,-4.96
61910,3239,29296,175,101381,35.00,-7.18,-4.94
61932,3037,29296,173,101425,35.00,-7.25,-4.96
61954,2759,29296,167,101486,35.00,-7.19,-5.01
61976,2536,29296,182,101543,35.00,-7.21,-5.00
61998,2356,29296,184,101623,35.00,-7.25,-4.96
62020,2323,29296,205,101689,35.00,-7.25,-4.97
62042,2234,29296,204,101771,35.00,-7.21,-4.95
62083,2119,29296,201,101981,35.00,-7.25,-4.98
62105,1779,29296,179,102072,35.00,-7.24,-4.96
62127,1605,29296,165,102133,35.00,-7.29,-5.00
62149,1443,29296,141,102199,35.00,-7.22,-4.97
62171,1327,29296,134,102260,35.00,-7.24,-4.95
62193,1207,29296,119,102300,35.00,-7.23,-4.97
62215,1107,29296,121,102369,35.00,-7.22,-4.93
62237,893,29296,126,102430,35.00,-7.22,-4.97
62259,891,29296,137,102489,35.00,-7.24,-4.99
62281,729,29296,141,102554,35.00,-7.24,-4.99
62323,827,29296,143,102675,35.00,-7.26,-5.00
62345,1259,29296,141,102611,35.00,-7.25,-4.97
62367,1362,29296,127,102344,35.00,-7.21,-4.96
62389,1319,29296,121,101911,35.00,-7.24,-5.00
62411,1416,29296,107,101507,35.00,-7.21,-5.01
62433,1495,29296,105,101207,35.00,-7.23,-4.99
62455,1611,28784,117,101006,35.00,-7.25,-4.95
62477,1581,29296,125,100872,35.00,-7.26,-5.01
62499,1735,28784,139,100784,35.00,-7.25,-5.01
62521,1847,29296,159,100719,35.00,-7.23,-4.98
62543,1957,29296,169,100705,35.00,-7.24,-4.96
62584,2291,29296,175,100998,35.00,-7.20,-4.94
62606,2341,29296,184,101073,35.00,-7.23,-4.95
62628,2445,29296,172,101120,35.00,-7.21,-4.97
62650,2505,29296,169,101165,35.00,-7.24,-4.96
62672,2524,29296,164,101224,35.00,-7.24,-4.99
62694,2532,29296,159,101281,35.00,-7.24,-4.96
62716,2521,29296,171,101344,35.00,-7.22,-4.97
62738,2495,29296,183,101412,35.00,-7.23,-4.97
62760,2415,29296,191,101479,35.00,-7.26,-4.98
62782,2079,29296,199,101543,35.00,-7.27,-5.04
62825,2107,29296,200,101737,35.00,-7.25,-4.99
62847,2303,29296,191,101812,35.00,-7.20,-4.97
62869,2231,29296,183,101895,35.00,-7.22,-5.00
62891,2151,29296,167,101940,35.00,-7.22,-4.99
62913,2107,29296,164,101999,35.00,-7.22,-5.00
62935,1965,29296,163,102043,35.00,-7.22,-4.95
62957,1851,29296,157,102098,35.00,-7.23,-4.96
62979,1548,29296,156,102156,35.00,-7.22,-5.00
63585,1207,29296,157,102215,35.78,-7.19,-5.02
63627,1129,28784,139,102022,35.00,-7.24,-4.99
63649,1029,28784,124,102107,35.00,-7.22,-4.96
63671,1133,29296,115,102194,35.00,-7.21,-4.98
63693,1300,29296,104,102277,35.00,-7.25,-4.96
63715,1305,29296,101,102375,35.00,-7.24,-5.01
63737,1343,29296,105,102458,35.00,-7.24,-4.97
63759,1318,29296,112,102527,35.00,-7.25,-5.00
63781,1448,29296,124,102598,35.00,-7.25,-4.95
63803,1639,29296,145,102630,35.00,-7.24,-4.96
63825,1759,29296,155,102515,35.00,-7.24,-5.00
63867,2006,29296,163,101430,35.00,-7.23,-5.02
63889,2409,28784,166,101200,35.00,-7.21,-4.99
63911,2611,29296,163,101077,35.00,-7.21,-4.96
63933,2841,29296,159,100991,35.00,-7.26,-4.95
63955,3003,29296,167,100944,35.00,-7.23,-4.99
63977,2867,29296,165,100929,35.00,-7.27,-5.02
63999,2839,29296,174,100988,35.00,-7.28,-4.98
64021,2718,29296,185,101115,35.00,-7.25,-4.98
64043,2549,29296,197,101294,35.00,-7.22,-4.99
64065,2421,28784,203,101506,35.00,-7.21,-4.96
64087,2461,29296,215,101743,35.00,-7.24,-5.00
64128,2515,29296,207,102722,35.00,-7.24,-4.96
64150,2264,28784,187,103208,35.00,-7.24,-4.99
64172,2215,28784,188,103584,35.00,-7.23,-4.97
64194,2069,29296,155,103888,35.00,-7.24,-4.96
64216,1938,29296,153,104137,35.00,-7.21,-4.99
64238,1739,29296,147,104354,35.00,-7.22,-4.98
64260,1541,29296,149,104515,35.00,-7.21,-4.97
64282,1315,29296,151,104664,35.00,-7.23,-4.99
64304,1099,29296,155,104827,35.00,-7.24,-4.94
64326,983,28784,155,105015,35.00,-7.27,-4.96
64368,975,29296,155,105543,35.00,-7.25,-5.01
64390,1101,29296,139,105746,35.00,-7.25,-4.99
64412,1078,29296,121,105989,35.00,-7.22,-4.96
64434,1080,28784,111,106245,35.00,-7.25,-4.95
64456,1078,28784,105,106556,35.00,-7.26,-5.00
64478,904,28784,99,106890,35.00,-7.23,-5.01
64500,968,29296,107,107154,35.00,-7.25,-5.00
64522,1079,29296,119,107390,35.00,-7.22,-5.00
64544,1077,29296,131,107543,35.00,-7.23,-4.98
64566,1241,29296,149,107370,35.00,-7.22,-5.02
64588,1337,29296,151,106769,35.00,-7.24,-4.98
64629,1469,29296,139,106128,35.00,-7.24,-4.97
64651,1885,29296,141,106351,35.00,-7.17,-4.97
64673,2024,29296,133,106612,35.00,-7.26,-4.97
64695,2133,29296,133,106889,35.00,-7.25,-4.99
64717,2664,29296,143,107252,35.00,-7.21,-5.01
64739,2318,29296,137,107648,35.00,-7.22,-4.96
64761,2324,29296,151,108080,35.00,-7.22,-4.95
64783,2249,28784,159,108492,35.00,-7.16,-5.00
64805,2355,28784,173,108780,35.00,-7.26,-4.96
64827,2331,28784,182,108998,35.00,-7.25,-4.97
64870,2577,28784,196,109368,35.00,-7.24,-4.98
64892,2728,28784,183,109472,35.00,-7.19,-4.98
64914,2654,28784,173,109586,35.00,-7.22,-4.94
64936,2686,28784,167,109689,35.00,-7.23,-4.95
64958,2458,28784,157,109782,35.00,-7.23,-4.99
64980,2363,28784,159,109882,35.00,-7.25,-5.01
65372,2163,28784,167,109980,35.64,-7.25,-4.97
65411,1964,29296,152,109490,35.00,-7.21,-5.00
65433,1705,29296,163,109432,35.00,-7.20,-4.96
65455,1413,29296,139,109409,35.00,-7.24,-4.97
65477,1719,29296,133,109463,35.00,-7.21,-4.93
65499,2129,29296,137,109590,35.00,-7.19,-4.97
65521,2187,29296,141,109684,35.00,-7.25,-4.96
65543,1897,29296,153,109753,35.00,-7.22,-4.99
65565,1658,29296,154,109784,35.00,-7.21,-4.97
65587,1705,29296,169,109799,35.00,-7.25,-4.97
65609,1803,29296,175,109839,35.00,-7.26,-5.02
65652,1853,29296,173,109949,35.00,-7.24,-5.00
65674,1917,29296,155,109984,35.00,-7.25,-4.97
65696,1901,29296,151,110029,35.00,-7.24,-4.99
65718,1813,29296,137,110060,35.00,-7.23,-4.93
65740,1749,29296,133,110093,35.00,-7.22,-4.97
65762,1681,29296,135,110128,35.00,-7.27,-4.97
65784,1587,29296,141,110167,35.00,-7.23,-5.04
65806,1575,29296,151,110177,35.00,-7.18,-4.99
65828,1583,30064,169,110196,35.00,-7.22,-5.00
65850,1612,29296,172,110223,35.00,-7.22,-5.00
65892,1700,29296,171,110328,35.00,-7.24,-4.99
65914,1834,29296,155,110347,35.00,-7.24,-4.97
65936,1901,29296,149,110388,35.00,-7.26,-4.98
65958,1959,30064,141,110416,35.00,-7.22,-4.93
65980,1805,29296,135,110447,35.00,-7.24,-4.98
66393,1796,30064,139,110460,36.52,-7.21,-4.98
66433,1855,29296,164,109885,35.00,-7.26,-4.98
66455,1675,29296,155,109943,35.00,-7.27,-5.00
66477,1612,30064,151,109979,35.00,-7.23,-4.98
66499,1607,30064,137,110028,35.00,-7.22,-4.98
66521,1499,30064,126,110060,35.00,-7.24,-4.96
66543,1591,30064,134,110077,35.00,-7.24,-4.98
66565,1541,30064,147,110098,35.00,-7.22,-4.97
66587,1469,30064,151,110111,35.00,-7.19,-4.98
66609,1355,30064,167,110116,35.00,-7.23,-4.97
66631,1396,30064,172,110121,35.00,-7.20,-4.92
66653,1620,30064,167,110138,35.00,-7.23,-4.99
66694,1749,30064,159,110206,35.00,-7.24,-5.01
66716,1909,30064,163,110234,35.00,-7.24,-4.98
66738,1932,30064,149,110250,35.00,-7.22,-5.00
66760,2019,30064,143,110206,35.00,-7.24,-4.97
66782,1854,30064,136,109954,35.00,-7.26,-4.93
66804,1723,30064,139,109377,35.00,-7.21,-4.98
66826,1653,30064,146,108642,35.00,-7.24,-4.99
66848,1775,30064,155,108201,35.00,-7.23,-4.94
66870,1787,29296,169,108030,35.00,-7.23,-4.99
66892,1845,29296,173,107957,35.00,-7.22,-4.97
66935,1983,29296,181,107916,35.00,-7.22,-5.00
66957,2005,29296,157,108062,35.00,-7.24,-5.00
66979,2063,30064,149,108298,35.00,-7.23,-4.96
67414,1999,30064,139,108495,36.43,-7.25,-4.99
67456,1607,30064,149,109674,35.00,-7.26,-4.99
67478,1635,30064,139,109707,35.00,-7.21,-5.00
67500,1635,30064,123,109567,35.00,-7.20,-4.98
67522,1771,30064,121,109027,35.00,-7.24,-4.97
67544,1651,30064,119,108145,35.00,-7.24,-5.01
67566,1573,30064,121,107532,35.00,-7.22,-4.97
67588,1593,30064,137,107258,35.00,-7.21,-4.99
67610,1555,30064,147,107156,35.00,-7.24,-4.96
67632,1691,30064,158,107105,35.00,-7.24,-4.96
67654,1821,30064,159,107062,35.00,-7.26,-4.96
67696,1878,30064,160,107318,35.00,-7.25,-4.95
67718,2063,30064,155,107583,35.00,-7.22,-4.98
67740,2125,30064,142,107817,35.00,-7.24,-5.01
67762,2109,30064,136,107946,35.00,-7.24,-4.97
67784,2175,30064,132,108031,35.00,-7.25,-4.97
67806,2080,30064,137,108125,35.00,-7.24,-5.00
67828,2009,30064,143,108206,35.00,-7.24,-4.98
67850,1915,30064,165,108305,35.00,-7.22,-4.97
67872,1933,30064,171,108405,35.00,-7.26,-5.00
67894,2028,30064,180,108528,35.00,-7.24,-5.00
67916,2100,30064,179,108647,35.00,-7.24,-4.97
67957,2135,30576,165,108920,35.00,-7.23,-5.03
67979,2143,30064,165,109003,35.00,-7.23,-5.01
68689,2217,30064,154,109086,36.03,-7.21,-4.99
68719,1720,30064,151,108587,35.00,-7.20,-4.98
68741,1979,30576,157,108654,35.00,-7.21,-4.94
68763,2030,30576,142,108709,35.00,-7.22,-4.94
68785,1893,30576,141,108769,35.00,-7.24,-4.98
68807,1805,30576,138,108851,35.00,-7.25,-4.94
68829,1770,30576,151,108912,35.00,-7.22,-4.97
68851,1775,30576,160,108990,35.00,-7.21,-5.00
68873,1641,30576,173,109059,35.00,-7.23,-4.96
68895,1581,30576,175,109150,35.00,-7.23,-4.96
68917,1576,30576,171,109237,35.00,-7.21,-5.00
68959,1669,30576,165,109379,35.00,-7.24,-4.98
68981,1767,30576,155,109208,35.00,-7.25,-4.97
69710,1739,30576,139,108554,36.07,-7.23,-4.97
69741,1719,30576,145,108642,35.00,-7.22,-4.95
69763,1932,30576,153,107744,35.00,-7.24,-4.99
69785,1965,30576,136,107036,35.00,-7.24,-4.94
69807,1836,30576,125,106752,35.00,-7.23,-5.00
69829,1781,30576,119,106625,35.00,-7.23,-4.94
69851,1695,30576,139,106530,35.00,-7.24,-4.96
69873,1629,30576,141,106468,35.00,-7.24,-4.92
69895,1592,30576,160,106428,35.00,-7.24,-4.96
69917,1604,30576,157,106437,35.00,-7.19,-4.96
69939,1705,30576,168,106545,35.00,-7.22,-4.99
69961,1785,30576,154,106730,35.00,-7.24,-4.91
70731,1875,30576,154,107047,35.54,-7.23,-4.98
70764,2004,30576,142,106863,35.00,-7.23,-4.97
70786,2219,30576,140,106937,35.00,-7.20,-4.97
70808,2265,30576,142,107022,35.00,-7.21,-4.97
70830,2235,30576,139,107110,35.00,-7.19,-4.96
70852,2125,30576,147,107236,35.00,-7.19,-4.99
70874,2052,30576,155,107347,35.00,-7.22,-4.94
70896,2014,30576,166,107469,35.00,-7.26,-4.97
70918,1926,30576,177,107580,35.00,-7.22,-4.99
70940,2010,30576,185,107705,35.00,-7.22,-4.96
70962,2131,30576,180,107808,35.00,-7.23,-5.02
71504,2260,30576,173,108079,35.02,-7.23,-4.97
71546,1587,30576,137,107089,35.00,-7.25,-4.95
71568,1747,30576,120,107198,35.00,-7.26,-5.00
71590,1608,30576,111,107311,35.00,-7.24,-4.94
71612,1607,30960,117,107413,35.00,-7.19,-4.96
71634,1546,30960,118,107524,35.00,-7.26,-5.01
71656,1509,30960,135,107649,35.00,-7.27,-4.99
71678,1525,30960,148,107788,35.00,-7.21,-4.96
71700,1581,30960,151,107898,35.00,-7.25,-4.99
71722,1707,30960,159,107998,35.00,-7.21,-4.96
71744,1879,30960,156,108111,35.00,-7.23,-5.00
71786,1944,30960,147,108384,35.00,-7.24,-4.97
71808,1997,30576,136,108455,35.00,-7.22,-4.98
71830,2013,30960,125,108540,35.00,-7.24,-4.96
71852,2040,30960,133,108638,35.00,-7.25,-4.96
71874,2013,30960,125,108733,35.00,-7.19,-4.99
71896,1897,30960,142,108832,35.00,-7.25,-5.00
71918,1883,30960,155,108902,35.00,-7.23,-4.97
71940,1915,30960,172,108965,35.00,-7.26,-4.96
71962,2038,30960,173,108954,35.00,-7.26,-4.95
71984,2084,30960,171,108609,35.00,-7.23,-4.99
72517,2093,30960,157,107785,35.41,-7.24,-4.96
72548,1437,30960,146,108605,35.00,-7.24,-4.96
72570,1800,30960,136,108694,35.00,-7.26,-4.98
72592,1813,30960,125,108792,35.00,-7.20,-5.00
72614,1735,30960,123,108873,35.00,-7.23,-4.97
72636,1635,30960,133,108964,35.00,-7.22,-5.00
72658,1517,31472,143,109023,35.00,-7.23,-4.96
72680,1581,30960,155,109091,35.00,-7.23,-4.99
72702,1594,30960,155,109108,35.00,-7.23,-4.99
72724,1746,31472,169,108866,35.00,-7.25,-4.97
72746,1737,31472,155,108132,35.00,-7.24,-4.99
72768,1831,30960,151,107273,35.00,-7.21,-4.98
72809,1916,30960,147,106519,35.00,-7.19,-4.97
72831,1895,31472,135,106477,35.00,-7.23,-4.97
72853,1853,31472,125,106442,35.00,-7.23,-4.95
72875,1817,31472,120,106439,35.00,-7.23,-4.99
72897,1773,31472,147,106486,35.00,-7.23,-5.00
72919,1915,31472,149,106641,35.00,-7.20,-4.97
72941,1769,31472,169,106872,35.00,-7.18,-4.96
72963,1691,31472,165,107050,35.00,-7.23,-4.91
72985,1815,31472,169,107158,35.00,-7.22,-4.94
73537,1949,31472,165,107209,35.23,-7.24,-4.97
73571,1781,30960,142,106451,35.00,-7.18,-4.97
73593,1875,30960,134,106393,35.00,-7.24,-4.99
73615,1907,30960,133,106362,35.00,-7.25,-4.96
73637,1854,31472,133,106353,35.00,-7.29,-4.95
73659,1771,31472,152,106399,35.00,-7.23,-4.99
73681,1788,31472,155,106571,35.00,-7.20,-4.99
73703,1754,31472,167,106779,35.00,-7.21,-4.98
73725,1629,31472,166,106929,35.00,-7.24,-4.94
73747,1641,30960,164,106985,35.00,-7.24,-4.96
73769,1759,30960,152,107013,35.00,-7.23,-4.96
73811,1855,30960,149,107232,35.00,-7.24,-4.93
73833,1767,30960,123,107313,35.00,-7.21,-5.00
73855,1629,30960,120,107391,35.00,-7.21,-4.98
73877,1515,30960,119,107472,35.00,-7.24,-4.98
73899,1573,30960,125,107580,35.00,-7.21,-4.97
73921,1453,30960,138,107680,35.00,-7.24,-4.96
73943,1449,31472,147,107765,35.00,-7.26,-4.96
73965,1481,30960,155,107850,35.00,-7.21,-5.01
73987,1605,30960,158,107929,35.00,-7.25,-4.97
74557,1738,30960,155,108018,34.70,-7.23,-4.96
74593,1977,30960,143,107465,35.00,-7.22,-4.90
74615,1942,30960,146,107577,35.00,-7.24,-4.97
74637,1867,30960,139,107705,35.00,-7.26,-4.99
74659,1723,30960,145,107820,35.00,-7.23,-4.99
74681,1647,30960,147,107944,35.00,-7.20,-4.97
74703,1387,30960,147,108036,35.00,-7.21,-4.96
74725,1317,30960,159,108143,35.00,-7.24,-4.96
74747,1429,30960,163,108234,35.00,-7.21,-4.96
74769,1513,30960,167,108322,35.00,-7.17,-5.01
74791,1541,30960,153,108401,35.00,-7.21,-4.98
74813,1471,30960,139,108471,35.00,-7.23,-4.98
74854,1445,30960,124,108684,35.00,-7.25,-4.96
74876,1273,30576,115,108787,35.00,-7.27,-5.03
74898,1481,30960,111,108886,35.00,-7.26,-5.00
74920,1395,30960,111,108939,35.00,-7.22,-5.01
74942,1245,30960,123,108970,35.00,-7.23,-4.97
74964,1221,30960,127,108887,35.00,-7.23,-5.00
74986,1279,30960,145,108431,35.00,-7.21,-4.96
75578,1421,30960,151,107558,35.33,-7.19,-4.96
75616,1966,30960,132,108587,35.00,-7.27,-4.95
75638,2031,30576,137,108688,35.00,-7.23,-4.98
75660,1971,30960,135,108777,35.00,-7.19,-5.01
75682,1980,30960,139,108828,35.00,-7.21,-4.98
75704,1864,30960,153,108857,35.00,-7.22,-4.97
75726,1627,30960,159,108738,35.00,-7.24,-5.02
75748,1559,30960,173,108185,35.00,-7.21,-4.95
75770,1617,30960,169,107317,35.00,-7.23,-5.03
75792,1701,30960,167,106745,35.00,-7.24,-5.01
75814,1703,30960,149,106522,35.00,-7.22,-5.00
75856,1773,30960,146,106308,35.00,-7.22,-4.96
75878,1807,30960,125,106262,35.00,-7.20,-4.99
75900,1725,30960,123,106280,35.00,-7.21,-4.96
75922,1641,30960,123,106368,35.00,-7.19,-4.99
75944,1595,30960,136,106549,35.00,-7.23,-4.91
75966,1467,30960,155,106725,35.00,-7.27,-5.00
75988,1511,30960,159,106865,35.00,-7.24,-4.97
76350,1571,30960,167,106920,35.05,-7.19,-4.97
76378,1821,30960,169,108647,35.00,-7.21,-4.99
76400,1916,30576,135,108749,35.00,-7.22,-4.94
76422,2207,30960,135,108821,35.00,-7.27,-4.98
76444,1879,30960,135,108887,35.00,-7.20,-4.95
76466,1772,30960,147,108906,35.00,-7.23,-4.97
76488,1740,30960,163,108719,35.00,-7.22,-4.97
76510,1769,30960,165,108070,35.00,-7.23,-4.95
76532,1879,30960,172,107236,35.00,-7.25,-4.94
76554,1997,30960,171,106755,35.00,-7.17,-4.95
76576,1998,30960,155,106589,35.00,-7.22,-4.98
76618,1955,30960,149,106390,35.00,-7.20,-4.99
76640,2089,30960,140,106386,35.00,-7.25,-4.95
76662,2031,30960,133,106421,35.00,-7.20,-5.00
76684,1958,30960,145,106556,35.00,-7.24,-4.99
76706,1755,30960,143,106782,35.00,-7.21,-4.98
76728,1706,30960,159,106979,35.00,-7.29,-4.97
76750,1721,30960,172,107090,35.00,-7.21,-4.96
76772,1845,30960,178,107132,35.00,-7.25,-4.98
76794,1915,30960,173,107185,35.00,-7.23,-4.97
76816,1813,30960,163,107251,35.00,-7.19,-5.02
76859,1801,30960,142,107541,35.00,-7.22,-5.01
76881,2139,30960,143,107649,35.00,-7.28,-5.00
76903,1966,30960,136,107758,35.00,-7.22,-4.96
76925,1763,30960,141,107847,35.00,-7.19,-4.99
76947,1606,30960,151,107947,35.00,-7.21,-4.97
76969,1559,30960,164,108034,35.00,-7.25,-4.98
76991,1558,30960,168,108121,35.00,-7.27,-4.94
77363,1687,30960,175,108211,34.67,-7.26,-4.97
77400,1463,30960,120,106309,35.00,-7.24,-5.02
77422,1321,30960,117,106383,35.00,-7.23,-4.99
77444,1215,30960,115,106544,35.00,-7.20,-5.00
77466,1149,31472,123,106732,35.00,-7.22,-4.97
77488,905,30960,125,106870,35.00,-7.23,-4.94
77510,1325,30960,147,106922,35.00,-7.21,-5.00
77532,1191,30960,150,106966,35.00,-7.23,-5.02
77554,1572,30960,163,107034,35.00,-7.24,-5.01
77576,1519,30960,146,107121,35.00,-7.24,-4.91
77598,1243,30960,131,107205,35.00,-7.23,-4.94
77640,3277,30960,156,107512,35.00,-7.23,-4.99
77662,1784,30576,127,107596,35.00,-7.25,-4.99
77684,1565,30576,112,107682,35.00,-7.26,-4.95
77706,1516,30576,117,107767,35.00,-7.23,-4.98
77728,1641,30064,135,107848,35.00,-7.19,-4.97
77750,1656,30576,143,107927,35.00,-7.23,-4.98
77772,1690,30576,159,108001,35.00,-7.21,-5.01
77794,1899,30576,167,108084,35.00,-7.22,-4.96
77816,2012,30576,169,108149,35.00,-7.20,-4.98
77838,2275,30576,157,108213,35.00,-7.25,-4.98
77860,2223,30576,154,108293,35.00,-7.23,-4.97
77901,2579,30576,157,108551,35.00,-7.23,-4.99
77923,3719,30576,211,108631,35.00,-7.25,-4.97
77945,3859,30576,209,108701,35.00,-7.24,-4.95
77967,1187,30576,145,108719,35.00,-7.23,-4.96
77989,1453,30576,140,108531,35.00,-7.25,-5.01
78383,1114,30576,141,107838,35.58,-7.23,-4.96
78422,2443,30576,153,107893,35.00,-7.23,-5.00
78444,2715,30576,169,107993,35.00,-7.23,-4.98
78466,2645,30576,169,108093,35.00,-7.24,-4.98
78488,2485,30576,172,108188,35.00,-7.22,-4.98
78510,2139,30576,167,108271,35.00,-7.21,-4.96
78532,2089,30576,183,108344,35.00,-7.24,-4.99
78554,1837,30576,183,108429,35.00,-7.19,-5.01
78576,1849,30576,183,108499,35.00,-7.26,-4.97
78598,1762,30576,167,108573,35.00,-7.22,-5.00
78620,1662,30576,157,108667,35.00,-7.25,-4.96
78642,1465,30576,134,108768,35.00,-7.19,-5.03
78683,1507,30576,137,108945,35.00,-7.24,-4.99
78705,1555,30576,139,108975,35.00,-7.23,-4.99
78727,1639,30576,145,108825,35.00,-7.21,-4.98
78749,1695,30576,153,108215,35.00,-7.24,-4.96
78771,1489,30576,163,107342,35.00,-7.22,-4.95
78793,1171,30576,169,106805,35.00,-7.25,-4.96
78815,1001,30576,165,106623,35.00,-7.24,-4.98
78837,1135,30576,165,106528,35.00,-7.23,-4.98
78859,1321,30576,165,106451,35.00,-7.26,-4.98
78881,1355,30576,143,106390,35.00,-7.25,-5.01
78923,1209,30576,119,106466,35.00,-7.24,-4.99
78945,1115,30576,108,106650,35.00,-7.26,-4.98
78967,1159,30576,100,106850,35.00,-7.21,-5.00
78989,903,30576,104,106962,35.00,-7.24,-4.97
79403,819,30576,116,107018,35.88,-7.20,-4.96
79445,2415,30576,157,108961,35.00,-7.24,-4.99
79467,2681,30576,172,108978,35.00,-7.25,-4.96
79489,2426,30960,173,108726,35.00,-7.21,-4.96
79511,2253,30960,181,107951,35.00,-7.23,-4.99
79533,1956,30576,191,107126,35.00,-7.21,-4.93
79555,1862,30960,191,106719,35.00,-7.19,-5.01
79577,1826,30960,201,106572,35.00,-7.24,-5.02
79599,1837,30576,189,106513,35.00,-7.22,-4.97
79621,1981,30960,189,106440,35.00,-7.22,-4.95
79643,2170,30960,179,106395,35.00,-7.24,-4.97
79685,2003,30960,163,106548,35.00,-7.23,-4.98
79707,874,30960,132,106762,35.00,-7.20,-4.95
79729,23,30960,98,106943,35.00,-7.24,-4.96
79751,25,30960,115,107062,35.00,-7.24,-4.93
79773,0,30960,109,107121,35.00,-7.23,-4.97
79795,779,30960,149,107189,35.00,-7.24,-5.00
79817,523,30960,137,107279,35.00,-7.22,-4.99
79839,1335,30960,153,107389,35.00,-7.24,-4.94
79861,1647,30960,151,107497,35.00,-7.25,-4.99
79883,1973,30960,152,107604,35.00,-7.24,-4.98
79905,2205,30960,157,107720,35.00,-7.24,-4.95
79946,2505,30960,179,108030,35.00,-7.21,-5.01
79968,2487,30960,155,108134,35.00,-7.21,-4.95
79990,1817,30960,119,108217,35.00,-7.24,-4.97
80424,1339,30960,115,108299,35.14,-7.24,-4.98
80453,1213,30064,81,106617,35.00,-7.22,-5.02
80475,618,30576,93,106816,35.00,-7.24,-4.97
80497,2195,30576,145,106980,35.00,-7.26,-4.96
80519,2607,30576,170,107064,35.00,-7.22,-4.96
80541,1545,30576,145,107096,35.00,-7.24,-5.00
80563,2189,30576,147,107148,35.00,-7.21,-4.98
80585,3332,30576,157,107221,35.00,-7.22,-4.97
80628,1309,30576,103,107493,35.00,-7.25,-4.98
80650,2279,30064,149,107588,35.00,-7.23,-4.96
80672,1179,30576,105,107696,35.00,-7.24,-4.98
80694,2610,30576,151,107776,35.00,-7.27,-4.98
80716,3059,30064,175,107879,35.00,-7.19,-4.96
80738,2757,30064,199,107964,35.00,-7.21,-4.98
80760,2538,30064,183,108056,35.00,-7.26,-4.96
80782,2389,30064,168,108136,35.00,-7.24,-4.94
80804,2655,30064,173,108188,35.00,-7.29,-4.97
80826,3031,30576,173,108231,35.00,-7.23,-4.96
80868,2356,30576,141,108447,35.00,-7.23,-5.00
80890,2119,30064,143,108502,35.00,-7.20,-4.96
80912,3145,30064,175,108586,35.00,-7.21,-4.99
80934,2603,29296,183,108663,35.00,-7.25,-4.99
80956,3705,28592,211,108725,35.00,-7.26,-4.99
80978,440,27312,157,108766,35.00,-7.21,-4.97
81699,2535,26416,185,108659,35.38,-7.20,-4.97
81730,2055,28784,163,109065,35.00,-7.23,-5.00
81752,1973,28784,136,108784,35.00,-7.23,-5.00
81774,3165,28784,168,108036,35.00,-7.26,-4.98
81796,2806,28784,187,107246,35.00,-7.26,-4.95
81818,3037,28592,190,106852,35.00,-7.24,-5.00
81840,2379,28784,201,106728,35.00,-7.19,-4.99
81862,2509,28784,213,106653,35.00,-7.19,-5.01
81884,1901,28784,197,106593,35.00,-7.24,-4.96
81906,2315,29296,209,106545,35.00,-7.24,-4.98
81928,2791,29296,207,106541,35.00,-7.21,-4.99
81950,2955,29296,203,106593,35.00,-7.22,-4.96
81991,2439,29296,187,107145,35.00,-7.25,-4.97
82719,1977,29296,157,107250,35.14,-7.24,-4.97
82753,1229,30960,187,107426,35.00,-7.25,-4.95
82775,1465,30960,151,107526,35.00,-7.25,-4.95
82797,1023,30960,153,107572,35.00,-7.22,-4.99
82819,1341,30960,169,107640,35.00,-7.19,-4.95
82841,1176,30960,179,107751,35.00,-7.24,-4.99
82863,1236,30960,181,107865,35.00,-7.22,-4.97
82885,1443,30960,197,107979,35.00,-7.21,-4.99
82907,1385,30960,189,108077,35.00,-7.22,-4.98
82929,1297,30960,171,108204,35.00,-7.21,-4.96
82951,1305,30960,159,108315,35.00,-7.23,-4.98
82994,1275,30960,141,108589,35.00,-7.25,-4.98
83740,957,31472,127,108681,34.73,-7.23,-4.98
83775,2991,32240,203,108463,35.00,-7.20,-4.94
83797,2725,32752,171,108539,35.00,-7.22,-4.98
83819,2847,32752,181,108593,35.00,-7.24,-4.98
83841,2937,32752,219,108649,35.00,-7.24,-4.96
83863,2595,32240,207,108720,35.00,-7.24,-4.97
83885,2239,32240,205,108803,35.00,-7.25,-4.98
83907,2087,32752,205,108881,35.00,-7.22,-4.96
83929,1917,32240,201,108948,35.00,-7.23,-4.95
83951,1971,32752,182,109015,35.00,-7.22,-5.00
83973,1945,32752,167,109089,35.00,-7.23,-4.96
83995,1771,32752,149,109139,35.00,-7.22,-4.99
84036,1555,32752,141,107926,35.00,-7.20,-4.95
84058,1587,32752,139,107202,35.00,-7.21,-4.96
84080,1508,32752,154,106912,35.00,-7.24,-4.98
84102,1273,32752,149,106815,35.00,-7.21,-4.92
84124,1021,32752,167,106765,35.00,-7.27,-4.98
84146,1087,32752,163,106723,35.00,-7.24,-4.96
84168,1407,32752,175,106708,35.00,-7.20,-4.96
84190,1215,32752,158,106720,35.00,-7.24,-4.97
84212,1115,32752,147,106834,35.00,-7.19,-4.94
84234,1109,32752,117,107034,35.00,-7.26,-4.96
84277,1191,32752,111,107481,35.00,-7.22,-4.99
84299,1391,32752,115,107557,35.00,-7.21,-5.00
84321,688,32752,125,107637,35.00,-7.19,-4.95
84343,794,32752,126,107726,35.00,-7.25,-4.94
84365,1485,32240,155,107832,35.00,-7.24,-4.96
84387,1809,32240,167,107948,35.00,-7.22,-4.96
84409,1719,32752,160,108050,35.00,-7.20,-4.98
84431,1523,32752,151,108156,35.00,-7.23,-5.01
84453,1779,32752,137,108252,35.00,-7.26,-5.00
84475,1867,32240,136,108364,35.00,-7.25,-4.96
84517,2141,32752,137,108678,35.00,-7.26,-4.98
84539,1827,32752,133,108756,35.00,-7.26,-4.99
84561,2137,32752,151,108834,35.00,-7.23,-4.96
84583,1691,32752,155,108910,35.00,-7.23,-4.94
84605,1341,32752,158,108968,35.00,-7.24,-4.98
84627,1765,32752,169,109042,35.00,-7.25,-4.97
84649,2285,32752,191,109122,35.00,-7.24,-4.96
84671,2225,32752,186,109193,35.00,-7.21,-4.96
84693,2067,32752,181,109270,35.00,-7.25,-4.98
84715,2728,32752,171,109331,35.00,-7.24,-4.98
84737,2698,32752,181,109390,35.00,-7.21,-4.98
84778,2207,32752,165,108258,35.00,-7.20,-4.97
84800,2519,32752,173,107520,35.00,-7.20,-4.98
84822,2303,32240,187,107152,35.00,-7.26,-4.96
84844,2051,32240,184,107042,35.00,-7.19,-4.97
84866,1893,32240,187,106974,35.00,-7.21,-5.01
84888,1783,32240,189,106906,35.00,-7.21,-4.98
84910,2022,32240,199,106891,35.00,-7.19,-4.95
84932,1983,32240,173,106890,35.00,-7.22,-4.96
84954,1835,32240,158,106973,35.00,-7.25,-4.97
84976,1587,32240,133,107152,35.00,-7.26,-4.99
85525,1439,32240,125,107671,34.65,-7.24,-5.00
85560,1657,32240,148,107342,35.00,-7.21,-4.96
85582,1797,32240,121,107148,35.00,-7.25,-5.01
85604,1619,32752,125,107074,35.00,-7.25,-4.97
85626,1519,32240,147,107009,35.00,-7.23,-4.97
85648,1979,32240,184,106960,35.00,-7.25,-5.01
85670,2607,32240,229,106947,35.00,-7.23,-4.97
85692,3493,32240,267,106999,35.00,-7.26,-4.99
85714,3859,32240,270,107126,35.00,-7.21,-4.97
85736,3833,32240,223,107357,35.00,-7.26,-5.02
85758,2725,32240,157,107598,35.00,-7.24,-4.95
85800,2173,32240,140,107889,35.00,-7.25,-5.02
85822,1973,32240,137,107967,35.00,-7.21,-4.97
85844,1723,32240,136,108051,35.00,-7.23,-4.97
85866,1565,32752,148,108157,35.00,-7.20,-5.00
85888,1589,32240,165,108260,35.00,-7.24,-4.99
85910,1702,32240,181,108361,35.00,-7.25,-5.02
85932,1846,32240,189,108453,35.00,-7.27,-4.95
85954,1963,32240,174,108551,35.00,-7.23,-5.01
85976,1917,32752,167,108658,35.00,-7.23,-4.96
85998,2079,32752,158,108754,35.00,-7.25,-4.95
86020,2076,32752,157,108838,35.00,-7.22,-4.96
86061,2024,32240,138,109077,35.00,-7.22,-4.98
86083,1261,32240,105,109122,35.00,-7.21,-4.95
86105,1032,32752,109,109171,35.00,-7.22,-5.01
86127,1193,32240,127,109222,35.00,-7.22,-4.99
86149,1299,32240,149,109290,35.00,-7.21,-4.98
86171,1365,32240,159,109349,35.00,-7.22,-5.00
86193,1515,32240,157,109421,35.00,-7.25,-5.01
86215,1614,32240,141,109491,35.00,-7.23,-5.00
86237,1458,32752,117,109530,35.00,-7.24,-4.98
86259,1169,32240,93,109527,35.00,-7.25,-4.96
86302,996,32752,93,107876,35.00,-7.21,-4.96
86324,1399,32240,117,107352,35.00,-7.24,-5.00
86346,1723,32752,147,107164,35.00,-7.25,-4.94
86368,1981,32752,167,107080,35.00,-7.22,-4.97
86390,1975,32752,178,107023,35.00,-7.26,-4.99
86412,1934,32240,183,106974,35.00,-7.23,-4.97
86434,1947,32240,179,106958,35.00,-7.22,-5.03
86456,2387,32752,184,107012,35.00,-7.22,-5.01
86478,2583,32752,178,107159,35.00,-7.23,-4.94
86500,2421,32752,167,107395,35.00,-7.22,-4.96
86542,2341,32752,172,107775,35.00,-7.23,-4.96
86564,2443,32752,169,107820,35.00,-7.21,-4.93
86586,1899,32752,156,107890,35.00,-7.25,-4.99
86608,1779,32752,165,107960,35.00,-7.19,-5.01
86630,1774,32752,175,108035,35.00,-7.22,-5.02
86652,2003,32752,200,108129,35.00,-7.23,-4.98
86674,2357,32752,200,108219,35.00,-7.24,-4.96
86696,2345,32752,191,108317,35.00,-7.28,-4.99
86718,2325,32752,179,108412,35.00,-7.22,-4.97
86740,2359,32752,163,108505,35.00,-7.21,-4.98
86762,1946,32752,151,108601,35.00,-7.21,-4.93
86803,1769,32240,139,108805,35.00,-7.22,-4.99
86825,1559,32240,135,108872,35.00,-7.20,-4.97
86847,1581,32240,157,108935,35.00,-7.26,-5.00
86869,1449,32240,154,108987,35.00,-7.26,-4.99
86891,1421,32240,175,109036,35.00,-7.28,-4.94
86913,1421,32240,169,109095,35.00,-7.23,-4.98
86935,1563,32240,172,109159,35.00,-7.24,-4.97
86957,1655,31472,157,109214,35.00,-7.23,-4.99
86979,1589,31472,151,109268,35.00,-7.25,-4.96
87565,1427,31472,125,109307,35.30,-7.25,-4.95
87605,1959,31472,133,108884,35.00,-7.20,-4.97
87627,2025,32240,135,108978,35.00,-7.28,-4.97
87649,1662,32240,135,109057,35.00,-7.19,-4.99
87671,1919,32240,151,109138,35.00,-7.23,-5.00
87693,2263,32240,169,109215,35.00,-7.19,-4.99
87715,2137,32240,175,109278,35.00,-7.25,-4.99
87737,2125,32240,171,109311,35.00,-7.25,-4.97
87759,2156,32240,153,109231,35.00,-7.23,-4.99
87781,1884,32240,133,108735,35.00,-7.23,-5.01
87803,1783,32240,116,107913,35.00,-7.23,-4.95
87845,1689,32240,110,106993,35.00,-7.22,-4.96
87867,1279,32240,102,106948,35.00,-7.22,-4.99
87889,1389,32240,119,106909,35.00,-7.26,-5.01
87911,1269,32240,131,106906,35.00,-7.25,-4.97
87933,1048,32240,139,106940,35.00,-7.25,-5.00
87955,1377,32240,147,107064,35.00,-7.23,-4.95
87977,1389,32240,149,107275,35.00,-7.23,-4.97
87999,1589,32240,143,107483,35.00,-7.22,-4.99
88021,1871,32240,135,107632,35.00,-7.25,-4.96
88043,1917,32240,127,107699,35.00,-7.22,-4.96
88065,1965,32240,125,107744,35.00,-7.26,-4.99
88106,2100,32240,133,108018,35.00,-7.24,-4.98
88128,2121,32240,142,108096,35.00,-7.24,-5.00
88150,2104,32240,155,108188,35.00,-7.24,-5.01
88172,2143,32240,173,108275,35.00,-7.27,-4.99
88194,2121,32240,184,108368,35.00,-7.27,-4.92
88216,2207,32240,189,108456,35.00,-7.21,-5.04
88238,2296,32240,184,108552,35.00,-7.22,-4.97
88260,2616,32240,175,108649,35.00,-7.21,-4.94
88282,3835,32240,199,108744,35.00,-7.22,-4.95
88304,2804,31472,169,108830,35.00,-7.22,-4.91
88326,1837,31472,145,108914,35.00,-7.25,-4.96
88367,1703,31472,135,109100,35.00,-7.23,-4.99
88389,1331,31472,119,109215,35.00,-7.21,-4.96
88411,1351,31472,141,109309,35.00,-7.28,-4.97
88433,1779,31472,169,109371,35.00,-7.25,-4.94
88455,2029,31472,187,109422,35.00,-7.19,-5.00
88477,1833,31472,182,109436,35.00,-6.98,-4.77
88499,2071,31472,184,109280,35.00,-7.29,-5.05
88521,1997,31472,171,108677,35.00,-7.25,-4.97
88543,2165,31472,165,107854,35.00,-7.28,-4.95
88565,2169,31472,155,107330,35.00,-7.22,-4.98
88607,1875,31472,141,106996,35.00,-7.22,-5.02
88629,1821,31472,137,106957,35.00,-7.19,-5.00
88651,1497,31472,150,106938,35.00,-7.28,-4.94
88673,1286,31472,153,106969,35.00,-7.25,-4.97
88695,1567,31472,164,107087,35.00,-7.23,-4.99
88717,1837,32240,175,107306,35.00,-7.24,-5.00
88739,1273,32240,164,107520,35.00,-7.24,-4.95
88761,1727,32240,157,107655,35.00,-7.24,-4.95
88783,1683,32240,154,107714,35.00,-7.26,-4.99
88805,2122,32240,150,107770,35.00,-7.25,-4.96
88827,2233,32240,152,107867,35.00,-7.21,-4.94
88868,1772,32752,142,108145,35.00,-7.22,-4.98
88890,1943,32240,167,108245,35.00,-7.21,-5.01
88912,2119,32752,171,108359,35.00,-7.26,-4.96
88934,2207,32752,197,108462,35.00,-7.20,-4.99
88956,1662,32240,184,108571,35.00,-7.24,-4.99
88978,1547,32240,197,108649,35.00,-7.19,-5.05
89351,2184,32752,190,108742,35.92,-7.19,-5.02
89389,1373,32752,158,106863,35.00,-7.25,-4.93
89411,1629,32776,147,106918,35.00,-7.24,-4.98
89433,2283,32752,199,107056,35.00,-7.24,-4.97
89455,1159,30960,159,107269,35.00,-7.24,-4.97
89477,647,29296,163,107467,35.00,-7.23,-4.97
89499,873,28592,158,107557,35.00,-7.22,-4.96
89521,1297,28080,171,107581,35.00,-7.24,-4.99
89543,1431,27312,167,107613,35.00,-7.21,-5.00
89565,1797,27312,159,107680,35.00,-7.22,-4.98
89587,1955,28080,148,107785,35.00,-7.24,-4.98
89609,1527,28080,134,107893,35.00,-7.20,-4.98
89650,1405,28080,141,108174,35.00,-7.22,-4.98
89672,1075,28592,123,108288,35.00,-7.24,-4.97
89694,1085,28784,140,108383,35.00,-7.22,-4.94
89716,1573,28784,167,108465,35.00,-7.24,-4.97
89738,1417,28784,169,108545,35.00,-7.26,-5.00
89760,1204,28784,168,108620,35.00,-7.24,-4.97
89782,1425,29296,167,108681,35.00,-7.25,-4.99
89804,1469,29296,151,108741,35.00,-7.25,-4.97
89826,1493,29296,151,108799,35.00,-7.24,-4.92
89848,1545,29296,132,108853,35.00,-7.19,-4.99
89891,1395,29296,121,109053,35.00,-7.23,-4.98
89913,1546,29296,127,109123,35.00,-7.23,-5.01
89935,1659,30064,151,109181,35.00,-7.24,-4.97
89957,2071,30064,173,109173,35.00,-7.24,-4.97
89979,2055,30064,185,108988,35.00,-7.23,-5.01
90371,1173,30064,163,108327,35.55,-7.23,-4.96
90412,0,30960,67,108124,35.00,-7.20,-4.94
90434,1371,30960,93,108228,35.00,-7.24,-5.00
90456,2019,30960,127,108328,35.00,-7.25,-4.99
90478,1931,31472,151,108400,35.00,-7.24,-4.96
90500,1815,30960,155,108492,35.00,-7.23,-4.99
90522,2077,31472,159,108565,35.00,-7.25,-4.96
90544,2597,30960,170,108628,35.00,-7.20,-4.98
90566,2749,30960,167,108692,35.00,-7.24,-5.00
90588,2719,30960,155,108761,35.00,-7.24,-4.98
90610,2569,30960,143,108842,35.00,-7.23,-4.98
90652,2413,31472,137,109072,35.00,-7.22,-4.96
90674,2447,31472,151,109106,35.00,-7.23,-4.99
90696,2259,31472,149,109069,35.00,-7.24,-4.99
90718,2383,31472,175,108689,35.00,-7.23,-4.98
90740,1086,30960,145,107882,35.00,-7.24,-4.97
90762,3128,30960,216,107225,35.00,-7.23,-4.94
90784,2424,30960,203,106943,35.00,-7.27,-4.97
90806,1568,30576,151,106835,35.00,-7.20,-4.97
90828,2799,30576,167,106763,35.00,-7.21,-4.97
90850,2447,30576,157,106700,35.00,-7.24,-4.96
90872,1909,30576,135,106650,35.00,-7.28,-4.96
90913,1684,30960,119,106872,35.00,-7.25,-4.98
90935,1509,30576,134,107076,35.00,-7.22,-5.00
90957,951,30576,131,107222,35.00,-7.26,-4.99
90979,760,30576,133,107284,35.00,-7.20,-5.00
91391,2135,30576,173,107348,35.54,-7.19,-4.96
91419,2373,30064,160,109062,35.00,-7.20,-4.99
91441,2245,30064,206,108912,35.00,-7.25,-5.00
91463,2203,30576,209,108286,35.00,-7.24,-4.96
91485,2021,30576,213,107375,35.00,-7.22,-4.96
91507,2031,30576,198,106840,35.00,-7.24,-4.98
91529,1831,30576,177,106633,35.00,-7.22,-5.01
91551,1679,30576,151,106560,35.00,-7.26,-4.99
91573,1397,30576,139,106504,35.00,-7.24,-4.97
91615,1461,30576,145,106387,35.00,-7.23,-4.97
91637,1270,30576,151,106449,35.00,-7.28,-4.95
91659,1048,30960,159,106579,35.00,-7.24,-5.00
91681,1049,30960,159,106735,35.00,-7.24,-4.96
91703,952,30960,157,106842,35.00,-7.24,-5.00
91725,1023,30960,153,106887,35.00,-7.28,-4.95
91747,715,30960,149,106929,35.00,-7.25,-4.99
91769,2251,30960,171,106977,35.00,-7.27,-4.99
91791,757,30960,123,107062,35.00,-7.21,-4.95
91813,1273,30960,119,107169,35.00,-7.26,-4.97
91855,1926,30960,127,107488,35.00,-7.25,-5.01
91877,495,30960,115,107574,35.00,-7.23,-4.98
91899,839,30960,125,107693,35.00,-7.24,-5.02
91921,1177,30960,165,107802,35.00,-7.23,-4.99
91943,1501,30576,181,107891,35.00,-7.23,-4.98
91965,1579,30576,183,107950,35.00,-7.24,-4.98
91987,1275,30064,159,108013,35.00,-7.21,-4.95
92411,1957,30064,169,108092,36.01,-7.21,-4.98
92440,1355,30064,121,107001,35.00,-7.29,-4.97
92462,775,30064,143,107069,35.00,-7.26,-4.99
92484,1047,30064,156,107145,35.00,-7.25,-4.97
92506,1437,30064,169,107249,35.00,-7.23,-4.96
92528,1525,30064,169,107385,35.00,-7.26,-4.94
92550,1699,30064,149,107539,35.00,-7.26,-5.02
92572,2008,30064,139,107675,35.00,-7.23,-4.98
92594,1883,30576,119,107815,35.00,-7.27,-4.97
92616,2075,30064,121,107945,35.00,-7.23,-4.96
92657,1941,30064,107,108246,35.00,-7.23,-4.97
92679,2676,30064,133,108287,35.00,-7.22,-5.00
92701,2100,30064,125,108316,35.00,-7.22,-4.94
92723,2151,30064,157,108339,35.00,-7.24,-4.97
92745,2267,30064,164,108342,35.00,-7.24,-4.95
92767,1599,30576,153,108337,35.00,-7.23,-4.97
92789,2660,30576,171,108338,35.00,-7.24,-4.97
92811,2539,30576,167,108386,35.00,-7.21,-4.96
92833,1645,30960,141,108462,35.00,-7.25,-5.00
92855,1941,30960,139,108546,35.00,-7.23,-4.98
92877,2168,30960,139,108626,35.00,-7.24,-4.97
92918,1919,30960,137,108739,35.00,-7.20,-4.99
92940,2267,30960,147,108610,35.00,-7.26,-4.99
92962,2421,30960,167,108062,35.00,-7.28,-4.96
92984,2067,30960,163,107283,35.00,-7.23,-4.95
93432,2597,30960,185,106826,34.91,-7.24,-4.97
93461,2477,30576,166,108659,35.00,-7.22,-4.96
93483,1881,30576,159,108750,35.00,-7.27,-4.98
93505,2419,30576,183,108811,35.00,-7.24,-4.98
93527,1745,30576,168,108856,35.00,-7.23,-4.97
93549,2340,30576,184,108912,35.00,-7.25,-4.98
93571,3821,30576,222,108974,35.00,-7.23,-4.98
93593,1784,30576,167,109038,35.00,-7.22,-4.97
93615,2773,30064,171,109092,35.00,-7.24,-5.00
93637,2587,30064,157,109147,35.00,-7.27,-4.96
93659,2409,29296,155,109206,35.00,-7.24,-4.97
93700,1541,28784,145,109053,35.00,-7.24,-4.95
93722,2074,28784,164,108433,35.00,-7.25,-4.98
93744,2207,28784,173,107603,35.00,-7.22,-4.95
93766,1847,30064,183,107095,35.00,-7.22,-4.94
93788,2001,30576,182,106930,35.00,-7.23,-4.99
93810,2648,31472,187,106862,35.00,-7.21,-5.01
93832,2543,32240,189,106811,35.00,-7.25,-5.00
93854,1557,32752,165,106776,35.00,-7.22,-4.99
93876,1517,32776,133,106754,35.00,-7.23,-4.97
93898,2457,33288,149,106815,35.00,-7.24,-5.00
93941,2732,33288,163,107262,35.00,-7.24,-4.99
93963,1325,33288,147,107319,35.00,-7.22,-4.98
93985,917,33288,150,107328,35.00,-7.27,-4.97
94708,1620,33288,171,107389,35.73,-7.25,-4.96
94743,1629,32752,183,107375,35.00,-7.23,-5.01
94765,1365,32752,139,107487,35.00,-7.22,-5.01
94787,1241,32752,153,107604,35.00,-7.18,-4.97
94809,1477,32240,175,107704,35.00,-7.24,-4.97
94831,558,32240,151,107818,35.00,-7.24,-4.99
94853,1784,32240,158,107914,35.00,-7.25,-4.98
94875,2886,32240,185,108013,35.00,-7.19,-4.98
94897,1420,32240,139,108113,35.00,-7.26,-4.96
94919,0,30960,101,108200,35.00,-7.27,-4.97
94941,1075,30576,107,108288,35.00,-7.21,-4.97
94983,1773,30576,142,108552,35.00,-7.25,-4.97
95728,923,30064,119,108590,35.30,-7.24,-4.97
95765,1928,28784,151,108616,35.00,-7.22,-4.99
95787,1681,29296,117,108681,35.00,-7.21,-4.99
95809,1790,29296,142,108761,35.00,-7.24,-4.94
95831,1891,29296,155,108849,35.00,-7.20,-5.00
95853,1693,29296,156,108919,35.00,-7.24,-4.98
95875,2079,29296,159,108956,35.00,-7.22,-4.93
95897,2663,29296,165,108936,35.00,-7.19,-4.95
95919,2987,29296,159,108590,35.00,-7.25,-4.96
95941,3051,29296,153,107805,35.00,-7.24,-4.99
95963,2980,29296,145,107157,35.00,-7.19,-4.97
95985,2940,29296,149,106929,35.00,-7.22,-4.99
96026,2703,29296,155,106863,35.00,-7.25,-4.98
96048,2660,30064,159,106893,35.00,-7.22,-4.96
96070,2538,30064,169,106956,35.00,-7.22,-5.02
96092,2637,30064,175,107084,35.00,-7.22,-5.00
96114,3320,30064,203,107296,35.00,-7.24,-4.98
96136,2957,29296,189,107512,35.00,-7.19,-4.98
96158,2632,30064,171,107659,35.00,-7.21,-4.95
96180,2568,30064,153,107724,35.00,-7.21,-4.96
96202,2583,30064,151,107764,35.00,-7.19,-4.97
96224,3053,30064,152,107845,35.00,-7.23,-4.98
96266,1033,30064,121,108124,35.00,-7.23,-5.00
96288,2284,30064,158,108208,35.00,-7.23,-4.98
96310,1588,30576,152,108316,35.00,-7.25,-4.96
96332,1467,30576,159,108404,35.00,-7.22,-4.96
96354,1723,30576,168,108485,35.00,-7.22,-4.99
96376,2063,30576,173,108571,35.00,-7.24,-4.99
96398,1703,30576,153,108645,35.00,-7.20,-4.95
96420,1718,30576,147,108713,35.00,-7.22,-4.93
96442,1645,30576,120,108787,35.00,-7.25,-4.98
96464,1707,30576,133,108844,35.00,-7.21,-4.97
96486,1639,30576,125,108885,35.00,-7.22,-4.99
96527,1548,30576,141,109094,35.00,-7.23,-4.97
96549,2135,30576,152,109152,35.00,-7.22,-4.98
96571,1351,30576,149,109202,35.00,-7.23,-4.99
96593,1444,30576,154,109232,35.00,-7.22,-4.97
96615,2094,30576,180,109246,35.00,-7.20,-4.94
96637,1830,30576,174,109143,35.00,-7.23,-4.96
96659,2089,30576,173,108694,35.00,-7.24,-5.01
96681,2175,30960,159,107941,35.00,-7.21,-4.99
96703,2153,30960,147,107386,35.00,-7.23,-5.00
96725,2213,30960,149,107208,35.00,-7.24,-4.97
96768,1967,30960,150,107275,35.00,-7.25,-4.95
96790,1801,30960,156,107353,35.00,-7.21,-5.04
96812,1709,31472,171,107479,35.00,-7.18,-4.95
96834,1675,31472,171,107656,35.00,-7.23,-4.97
96856,1737,31472,175,107810,35.00,-7.24,-4.96
96878,1829,31472,175,107878,35.00,-7.25,-4.95
96900,1819,31472,158,107917,35.00,-7.27,-4.96
96922,1861,31472,153,107948,35.00,-7.20,-4.96
96944,1813,31472,143,108003,35.00,-7.22,-4.98
96966,1695,31472,137,108075,35.00,-7.24,-4.98
97514,1587,31472,136,108335,35.89,-7.22,-4.99
97550,3382,31472,235,107268,35.00,-7.27,-4.98
97572,2331,31472,196,107438,35.00,-7.21,-5.01
97594,1139,32240,197,107619,35.00,-7.23,-4.93
97616,1019,32240,181,107730,35.00,-7.25,-4.97
97638,1002,32240,181,107799,35.00,-7.25,-4.98
97660,975,32240,159,107856,35.00,-7.25,-4.95
97682,1187,32240,156,107913,35.00,-7.23,-4.98
97704,1555,32752,139,107988,35.00,-7.26,-4.97
97726,1882,32752,145,108086,35.00,-7.24,-4.99
97748,1456,32752,131,108190,35.00,-7.24,-4.98
97790,1179,32752,137,108467,35.00,-7.24,-4.99
97812,1101,32240,145,108540,35.00,-7.24,-5.00
97834,1047,32752,151,108637,35.00,-7.25,-4.98
97856,1181,32752,169,108730,35.00,-7.22,-4.96
97878,1375,32240,174,108817,35.00,-7.20,-4.97
97900,1523,32240,178,108874,35.00,-7.26,-4.96
97922,1525,32752,157,108939,35.00,-7.25,-4.96
97944,1749,32240,149,108968,35.00,-7.25,-4.96
97966,1883,32752,137,108982,35.00,-7.20,-5.01
97988,1898,32240,134,108994,35.00,-7.24,-5.00
98534,1629,32752,123,109036,35.60,-7.19,-4.96
98572,0,32752,119,108451,35.00,-7.19,-5.01
98594,0,32752,109,108542,35.00,-7.19,-4.98
98616,1295,32752,139,108631,35.00,-7.22,-4.99
98638,1311,32752,147,108705,35.00,-7.22,-4.97
98660,1315,32752,155,108749,35.00,-7.21,-4.96
98682,1407,32752,155,108793,35.00,-7.24,-5.00
98704,1899,32752,155,108863,35.00,-7.25,-4.98
98726,2283,32240,145,108938,35.00,-7.21,-4.96
98748,2380,32240,147,109020,35.00,-7.24,-4.98
98770,2376,32240,139,109099,35.00,-7.21,-4.96
98792,2408,32240,148,109153,35.00,-7.21,-5.00
98833,2115,32240,146,108249,35.00,-7.26,-5.01
98855,1181,32240,117,107450,35.00,-7.24,-5.00
98877,1212,32240,139,107033,35.00,-7.24,-4.93
98899,1229,32240,141,106908,35.00,-7.23,-5.02
98921,1471,32240,148,106861,35.00,-7.20,-5.00
98943,1605,32240,141,106841,35.00,-7.18,-5.03
98965,1756,32240,136,106815,35.00,-7.27,-4.98
98987,1959,32240,127,106807,35.00,-7.26,-4.94
99555,2039,32240,121,106851,35.13,-7.22,-4.96
99595,2043,32240,157,106688,35.00,-7.23,-5.00
99617,1679,32240,151,106666,35.00,-7.22,-5.00
99639,2003,32240,188,106642,35.00,-7.21,-5.00
99661,2075,32240,209,106603,35.00,-7.24,-4.98
99683,2127,32240,213,106595,35.00,-7.22,-4.99
99705,2281,32240,199,106612,35.00,-7.22,-4.98
99727,2163,32752,185,106693,35.00,-7.24,-4.99
99749,1661,32752,155,106862,35.00,-7.23,-4.99
99771,1081,32752,133,107018,35.00,-7.21,-4.99
99793,927,32752,119,107099,35.00,-7.27,-4.95
99835,1006,32752,133,107238,35.00,-7.21,-4.96
99857,905,32752,143,107322,35.00,-7.21,-5.03
99879,905,32752,155,107428,35.00,-7.24,-4.99
99901,1032,32752,171,107521,35.00,-7.26,-4.93
99923,1215,32752,171,107622,35.00,-7.23,-4.96
99945,1159,32752,163,107718,35.00,-7.18,-4.97
99967,1187,32752,147,107817,35.00,-7.17,-4.99
99989,1243,32752,137,107920,35.00,-7.23,-4.95
100575,1331,32752,125,108021,35.23,-7.23,-4.97
100617,2205,32752,137,106814,35.00,-7.22,-4.95
100639,2205,32752,137,106900,35.00,-7.20,-4.95
100661,2423,32752,168,107002,35.00,-7.20,-4.97
100683,2133,32752,167,107124,35.00,-7.23,-4.98
100705,1847,32752,151,107253,35.00,-7.22,-4.96
100727,1773,32776,122,107385,35.00,-7.19,-4.95
100749,1452,32776,103,107516,35.00,-7.24,-4.97
100771,886,32752,72,107603,35.00,-7.22,-4.93
100793,0,32752,47,107654,35.00,-7.21,-4.97
100815,247,32752,42,107700,35.00,-7.24,-4.98
100837,347,32776,57,107756,35.00,-7.26,-4.95
100878,936,32776,87,107998,35.00,-7.22,-4.95
100900,717,32752,100,108096,35.00,-7.20,-4.97
100922,1709,32752,137,108149,35.00,-7.21,-4.99
100944,2773,32752,189,108023,35.00,-7.25,-5.00
100966,3838,32752,246,107458,35.00,-7.22,-4.96
100988,3853,32752,279,106777,35.00,-7.25,-4.99
101350,3858,32752,285,106411,35.87,-7.19,-5.00
101379,2743,32752,207,107118,35.00,-7.23,-5.01
101401,1997,32752,181,107211,35.00,-7.25,-4.96
101423,1823,32776,191,107296,35.00,-7.27,-4.95
101445,1745,32776,197,107341,35.00,-7.23,-4.93
101467,1651,32776,188,107381,35.00,-7.21,-4.99
101489,1609,32776,174,107414,35.00,-7.23,-5.00
101511,1712,32776,167,107458,35.00,-7.24,-4.98
101533,1597,32776,140,107511,35.00,-7.25,-4.98
101555,1429,32776,136,107559,35.00,-7.24,-4.95
101577,1161,32776,123,107604,35.00,-7.20,-4.99
101620,1049,32776,141,107688,35.00,-7.23,-4.99
101642,1336,32752,149,107649,35.00,-7.27,-4.99
101664,1095,32776,166,107361,35.00,-7.24,-4.95
101686,957,32776,167,106759,35.00,-7.23,-4.95
101708,1150,32776,157,106321,35.00,-7.20,-4.99
101730,1453,32776,156,106110,35.00,-7.26,-4.98
101752,1720,32752,165,106035,35.00,-7.22,-4.99
101774,1691,32752,151,106000,35.00,-7.24,-4.99
101796,1773,32776,157,105964,35.00,-7.29,-4.97
101818,2527,32776,175,105952,35.00,-7.21,-4.94
101860,2185,32776,191,106154,35.00,-7.25,-5.00
101882,1589,32752,151,106265,35.00,-7.24,-5.00
101904,1773,32752,185,106343,35.00,-7.24,-4.96
101926,1669,32776,191,106367,35.00,-7.25,-4.94
101948,1563,32752,185,106394,35.00,-7.21,-4.99
101970,1571,32776,169,106425,35.00,-7.25,-4.96
101992,1855,32776,168,106504,35.00,-7.23,-5.01
102361,1613,32752,138,106581,34.98,-7.23,-4.97
102401,1611,32752,144,106871,35.00,-7.24,-4.97
102423,1482,32776,143,106398,35.00,-7.24,-4.97
102445,1429,32752,159,106207,35.00,-7.24,-4.95
102467,1607,32776,163,106130,35.00,-7.23,-4.98
102489,1780,32752,175,106118,35.00,-7.26,-4.95
102511,1767,32776,167,106116,35.00,-7.27,-4.95
102533,1587,32776,151,106102,35.00,-7.23,-4.97
102555,1723,32776,140,106131,35.00,-7.23,-4.98
102577,1801,32776,139,106228,35.00,-7.24,-4.95
102599,1595,32776,125,106359,35.00,-7.24,-4.99
102621,1293,32776,125,106450,35.00,-7.22,-4.92
102662,1266,32776,139,106557,35.00,-7.23,-4.96
102684,1335,32776,141,106602,35.00,-7.22,-4.94
102706,1245,32776,155,106658,35.00,-7.24,-4.95
102728,1299,32776,163,106741,35.00,-7.25,-4.93
102750,1433,32776,166,106799,35.00,-7.21,-4.96
102772,1619,32776,155,106855,35.00,-7.21,-4.96
102794,1767,32776,151,106942,35.00,-7.22,-4.96
102816,1640,32776,127,107021,35.00,-7.22,-4.98
102838,1629,32776,133,107099,35.00,-7.20,-4.97
102860,1546,32776,117,107188,35.00,-7.24,-4.97
102903,1505,32776,132,107380,35.00,-7.24,-4.97
102925,1595,32752,140,107458,35.00,-7.21,-4.95
102947,1975,32752,171,107524,35.00,-7.26,-4.99
102969,2679,32752,207,107577,35.00,-7.20,-4.97
102991,767,32240,152,107650,35.00,-7.26,-4.92
103381,1455,32240,138,107708,35.63,-7.21,-4.96
103409,2437,31472,155,106379,35.00,-7.24,-4.98
103431,2404,31472,189,106428,35.00,-7.23,-4.93
103453,2197,32240,181,106504,35.00,-7.23,-4.98
103475,2265,31472,171,106573,35.00,-7.20,-4.97
103497,2381,30960,173,106653,35.00,-7.17,-4.93
103519,2493,30960,165,106710,35.00,-7.24,-5.00
103541,2107,30960,151,106797,35.00,-7.22,-4.97
103563,1845,30960,149,106885,35.00,-7.24,-5.00
103604,1809,31472,159,107089,35.00,-7.25,-4.96
103626,1851,31472,151,107121,35.00,-7.22,-5.01
103648,1383,31472,159,107155,35.00,-7.24,-4.98
103670,1171,31472,167,107181,35.00,-7.24,-4.99
103692,1507,30960,169,107215,35.00,-7.18,-4.96
103714,1959,31472,167,107299,35.00,-7.22,-4.98
103736,1991,31472,167,107365,35.00,-7.26,-5.03
103758,2165,31472,153,107428,35.00,-7.20,-4.96
103780,2411,31472,155,107466,35.00,-7.23,-4.99
103802,1927,31472,140,107492,35.00,-7.23,-4.96
103824,1572,31472,141,107449,35.00,-7.22,-4.98
103865,994,31472,138,106099,35.00,-7.24,-4.99
103887,1417,31472,151,105898,35.00,-7.23,-4.98
103909,1435,32240,171,105817,35.00,-7.24,-4.97
103931,1496,32240,167,105773,35.00,-7.22,-4.96
103953,1451,32752,165,105738,35.00,-7.24,-4.96
103975,1319,32752,155,105712,35.00,-7.21,-4.97
103997,1593,32752,153,105726,35.00,-7.25,-5.01
104401,1833,32752,140,105800,35.59,-7.22,-4.94
104429,2153,33288,133,106817,35.00,-7.21,-4.99
104451,923,32776,147,106901,35.00,-7.22,-4.98
104473,1076,33288,154,106992,35.00,-7.24,-4.95
104495,1785,33288,168,107099,35.00,-7.22,-4.92
104517,2479,33288,175,107193,35.00,-7.25,-4.98
104539,2363,34056,155,107037,35.00,-7.20,-4.94
104561,1901,34056,124,106506,35.00,-7.23,-4.98
104583,1420,33288,119,106020,35.00,-7.21,-5.01
104605,741,33288,115,105760,35.00,-7.25,-5.02
104647,301,33288,115,105512,35.00,-7.24,-4.98
104669,696,32776,116,105472,35.00,-7.25,-5.00
104691,782,32776,149,105445,35.00,-7.23,-4.97
104713,0,32776,117,105478,35.00,-7.24,-4.96
104735,0,32776,119,105568,35.00,-7.27,-4.98
104757,0,32776,109,105657,35.00,-7.19,-4.95
104779,0,32776,99,105709,35.00,-7.20,-4.99
104801,0,32752,77,105734,35.00,-7.22,-4.95
104823,0,32752,83,105753,35.00,-7.25,-4.98
104845,0,32752,87,105796,35.00,-7.24,-4.96
104888,687,32752,107,105990,35.00,-7.22,-5.01
104910,1891,32752,143,106078,35.00,-7.23,-4.99
104932,1151,32752,157,106164,35.00,-7.26,-4.99
104954,1893,32752,174,106230,35.00,-7.24,-5.02
104976,2491,32752,169,106321,35.00,-7.23,-5.01
104998,2685,32776,165,106396,35.00,-7.19,-4.96
105020,3833,32776,175,106462,35.00,-7.22,-4.99
105042,2541,33288,121,106531,35.00,-7.25,-4.97
105064,0,34056,95,106588,35.00,-7.25,-4.93
105086,859,34056,121,106631,35.00,-7.22,-4.96
105128,695,34056,109,106804,35.00,-7.25,-5.01
105150,765,34568,127,106868,35.00,-7.24,-4.99
105172,1195,34568,155,106945,35.00,-7.28,-4.95
105194,2207,34568,175,107026,35.00,-7.27,-4.95
105216,2847,34952,179,107077,35.00,-7.25,-4.97
105238,3276,34952,181,107040,35.00,-7.24,-4.97
105260,3849,34952,187,106734,35.00,-7.21,-5.01
105282,3371,34952,163,106164,35.00,-7.25,-5.05
105304,3795,35464,166,105760,35.00,-7.26,-4.94
105326,3683,35464,159,105532,35.00,-7.26,-4.96
105369,3629,35464,167,105247,35.00,-7.26,-4.98
105391,3507,35464,185,105190,35.00,-7.19,-4.96
105413,3496,35464,201,105174,35.00,-7.22,-4.93
105435,3849,35464,214,105175,35.00,-7.24,-4.98
105457,3863,35464,215,105241,35.00,-7.28,-4.97
105479,3857,35464,210,105354,35.00,-7.25,-5.00
105501,3844,36232,185,105452,35.00,-7.23,-4.95
105523,2778,36232,160,105497,35.00,-7.22,-5.02
105545,2312,36232,147,105516,35.00,-7.23,-4.96
105567,2071,36232,150,105551,35.00,-7.23,-4.93
105609,2577,36232,158,105746,35.00,-7.22,-4.98
105631,164,36232,105,105818,35.00,-7.20,-4.97
105653,409,36232,159,105895,35.00,-7.24,-4.94
105675,2065,36232,182,105972,35.00,-7.28,-4.97
105697,2314,36232,188,106057,35.00,-7.23,-4.96
105719,3123,36232,198,106138,35.00,-7.20,-4.97
105741,3355,36232,191,106227,35.00,-7.21,-5.01
105763,2197,36232,147,106303,35.00,-7.26,-4.97
105785,3380,35464,205,106370,35.00,-7.23,-4.96
105807,2329,34952,149,106438,35.00,-7.22,-4.97
105829,3555,34952,184,106502,35.00,-7.28,-4.96
105870,3835,34952,200,106675,35.00,-7.23,-4.96
105892,1992,34568,159,106759,35.00,-7.24,-4.92
105914,149,34568,140,106834,35.00,-7.23,-4.97
105936,1041,34056,172,106897,35.00,-7.20,-5.02
105958,1503,33288,183,106945,35.00,-7.19,-5.01
105980,1097,33288,169,106923,35.00,-7.22,-5.00
106697,1101,33288,156,106621,35.78,-7.21,-4.98
106732,1941,32752,167,105938,35.00,-7.23,-4.96
106754,1573,32752,141,105548,35.00,-7.23,-4.97
106776,1727,32752,167,105336,35.00,-7.25,-4.98
106798,1816,32776,173,105241,35.00,-7.24,-4.99
106820,1994,32752,179,105200,35.00,-7.25,-5.00
106842,1907,32752,157,105162,35.00,-7.22,-4.98
106864,339,32776,119,105136,35.00,-7.23,-4.94
106886,2595,32776,157,105132,35.00,-7.23,-4.96
106908,2841,32776,183,105175,35.00,-7.23,-5.01
106930,1338,32752,125,105282,35.00,-7.22,-4.99
106972,1834,32752,138,105528,35.00,-7.23,-5.00
106994,1789,32752,155,105557,35.00,-7.21,-4.94
107718,789,32240,164,105604,35.42,-7.21,-5.00
107754,1975,28784,171,105196,35.00,-7.24,-4.97
107776,2543,28784,169,105250,35.00,-7.23,-4.96
107798,2675,29296,190,105311,35.00,-7.22,-4.97
107820,2897,29296,207,105381,35.00,-7.24,-5.00
107842,3835,29296,232,105466,35.00,-7.24,-4.97
107864,2248,30064,189,105539,35.00,-7.21,-5.01
107886,3288,30576,212,105628,35.00,-7.20,-4.97
107908,2891,30576,175,105715,35.00,-7.20,-4.98
107930,2630,30576,165,105793,35.00,-7.23,-4.97
107952,2605,30576,155,105847,35.00,-7.23,-4.95
107974,2943,30576,172,105911,35.00,-7.22,-5.00
108739,3771,30576,200,106103,34.92,-7.26,-4.96
108777,1177,30064,137,106378,35.00,-7.19,-5.00
108799,1496,30064,121,106425,35.00,-7.24,-4.96
108821,1887,29296,147,106471,35.00,-7.22,-4.96
108843,1751,29296,141,106520,35.00,-7.23,-4.95
108865,1835,29296,147,106577,35.00,-7.22,-5.00
108887,2315,29296,146,106620,35.00,-7.22,-4.96
108909,2423,29296,147,106626,35.00,-7.20,-4.95
108931,2239,29296,135,106577,35.00,-7.24,-4.98
108953,2160,29296,137,106305,35.00,-7.20,-4.99
108975,2253,29296,137,105765,35.00,-7.26,-4.97
109759,2215,29296,154,104992,34.84,-7.24,-4.98
109799,1655,30960,135,105337,35.00,-7.22,-5.00
109821,1736,30960,125,105350,35.00,-7.23,-4.95
109843,1391,30960,142,105366,35.00,-7.22,-4.93
109865,1913,31472,153,105426,35.00,-7.20,-4.95
109887,2088,31472,167,105544,35.00,-7.25,-4.96
109909,2087,32240,157,105687,35.00,-7.24,-4.94
109931,2187,32240,152,105784,35.00,-7.23,-4.99
109953,2063,32240,125,105820,35.00,-7.21,-4.95
109975,2367,32240,127,105848,35.00,-7.24,-4.98
109997,2263,32240,121,105890,35.00,-7.25,-4.98
110525,1820,32752,127,105953,34.85,-7.24,-5.01
110561,1773,34568,179,105638,35.00,-7.22,-4.98
110583,1337,34568,145,105676,35.00,-7.22,-4.98
110605,1609,34568,164,105763,35.00,-7.26,-4.92
110627,1551,34952,173,105896,35.00,-7.21,-4.98
110649,1427,35464,173,106022,35.00,-7.20,-4.98
110671,1230,36232,157,106086,35.00,-7.21,-4.97
110693,1759,36744,152,106119,35.00,-7.23,-4.95
110715,1507,36744,125,106155,35.00,-7.22,-4.96
110737,1455,36936,127,106210,35.00,-7.23,-4.98
110759,1350,36936,115,106287,35.00,-7.19,-4.95
110781,1220,37448,123,106380,35.00,-7.24,-4.95
110822,1331,37448,137,106657,35.00,-7.21,-4.97
110844,1233,38216,135,106771,35.00,-7.22,-4.94
110866,1031,39112,155,106876,35.00,-7.25,-4.97
110888,1557,39112,167,106956,35.00,-7.26,-5.02
110910,1407,39624,155,107041,35.00,-7.21,-4.95
110932,1741,39624,142,107130,35.00,-7.24,-4.95
110954,2021,39624,140,107218,35.00,-7.22,-4.95
110976,1810,39624,123,107270,35.00,-7.19,-4.96
110998,1747,40392,116,107315,35.00,-7.22,-4.98
111020,2159,40392,121,107349,35.00,-7.21,-4.97
111062,2185,40904,142,107537,35.00,-7.26,-4.96
111084,1933,40904,137,107593,35.00,-7.27,-4.96
111106,1979,40904,153,107637,35.00,-7.23,-4.97
111128,951,40904,135,107628,35.00,-7.22,-4.97
111150,2629,40904,169,107494,35.00,-7.24,-4.98
111172,2847,40904,182,106935,35.00,-7.20,-4.97
111194,3159,40392,175,106187,35.00,-7.19,-5.00
111216,1785,39624,135,105754,35.00,-7.26,-4.95
111238,2525,39112,140,105581,35.00,-7.24,-4.97
111260,2430,39112,139,105525,35.00,-7.24,-4.98
111282,2171,38728,141,105510,35.00,-7.17,-4.97
111323,1991,38728,143,105519,35.00,-7.27,-5.01
111345,1428,38728,153,105580,35.00,-7.24,-5.01
111367,1379,38728,172,105673,35.00,-7.21,-4.98
111389,1677,38728,180,105717,35.00,-7.23,-4.99
111411,1533,38728,173,105727,35.00,-7.23,-5.01
111433,1629,38728,164,105731,35.00,-7.27,-5.01
111455,1514,39112,155,105776,35.00,-7.24,-4.95
111477,1493,38728,135,105818,35.00,-7.19,-4.95
111499,1567,38728,141,105881,35.00,-7.20,-4.98
111521,1520,38728,124,105966,35.00,-7.20,-4.95
111564,1575,38728,147,106235,35.00,-7.24,-4.96
111586,1139,38728,149,106322,35.00,-7.24,-4.96
111608,1227,38728,163,106389,35.00,-7.24,-4.97
111630,1340,38728,163,106429,35.00,-7.24,-4.97
111652,1279,38216,151,106480,35.00,-7.25,-4.98
111674,1229,38216,139,106533,35.00,-7.22,-4.99
111696,1520,38216,124,106570,35.00,-7.20,-4.97
111718,1957,37448,123,106600,35.00,-7.21,-5.00
111740,2300,37448,137,106659,35.00,-7.25,-4.99
111762,1587,37448,135,106731,35.00,-7.26,-4.97
111804,1367,37448,125,107009,35.00,-7.21,-4.98
111826,1118,38216,125,107056,35.00,-7.20,-4.98
111848,1553,38216,163,107063,35.00,-7.24,-4.98
111870,1144,38216,160,106879,35.00,-7.26,-4.97
111892,1501,38216,159,106346,35.00,-7.24,-4.95
111914,2103,38216,163,105801,35.00,-7.24,-4.98
111936,1927,38728,155,105520,35.00,-7.22,-5.00
111958,1531,38728,127,105404,35.00,-7.24,-4.97
111980,1653,38728,125,105379,35.00,-7.23,-4.98
112566,1928,38728,134,105388,35.63,-7.26,-4.99
112606,1958,36232,155,106480,35.00,-7.27,-4.97
112628,2127,36232,139,105880,35.00,-7.24,-4.96
112650,1863,36232,167,105587,35.00,-7.23,-4.96
112672,2457,36232,185,105466,35.00,-7.22,-4.95
112694,2037,35464,172,105419,35.00,-7.25,-4.95
112716,2514,35464,165,105390,35.00,-7.26,-4.98
112738,2659,35464,171,105376,35.00,-7.25,-4.97
112760,2779,35464,150,105379,35.00,-7.21,-4.95
112782,2467,35464,151,105402,35.00,-7.25,-4.99
112804,2311,34952,137,105496,35.00,-7.19,-4.99
112826,1948,34952,149,105585,35.00,-7.23,-4.98
112867,1958,34952,157,105596,35.00,-7.24,-4.95
112889,1749,34952,157,105639,35.00,-7.20,-4.95
112911,1689,34952,167,105681,35.00,-7.27,-5.01
112933,1391,34952,167,105741,35.00,-7.23,-5.01
112955,1917,34952,170,105807,35.00,-7.21,-4.99
112977,2141,35464,169,105876,35.00,-7.22,-4.95
112999,2070,35464,152,105966,35.00,-7.25,-4.96
113021,1705,36232,125,106042,35.00,-7.28,-4.99
113043,1375,36232,110,106140,35.00,-7.19,-4.98
113065,1528,36232,131,106224,35.00,-7.23,-4.95
113107,1547,36744,151,106393,35.00,-7.26,-4.97
113129,1237,36744,135,106433,35.00,-7.22,-5.01
113151,1363,36744,155,106493,35.00,-7.27,-5.00
113173,1721,36744,178,106540,35.00,-7.23,-4.99
113195,1053,36232,165,106621,35.00,-7.22,-4.96
113217,1459,36232,141,106699,35.00,-7.23,-4.94
113239,1947,36744,151,106755,35.00,-7.22,-4.97
113261,3795,36744,172,106799,35.00,-7.26,-4.96
113283,1375,36936,119,106808,35.00,-7.21,-5.00
113305,995,36936,104,106545,35.00,-7.20,-4.99
113327,2439,36936,141,105977,35.00,-7.28,-4.97
113368,2005,36936,157,105135,35.00,-7.24,-4.96
113390,1055,36936,135,105053,35.00,-7.22,-4.98
113412,1251,36744,149,104996,35.00,-7.24,-4.95
113434,1647,36232,165,104938,35.00,-7.23,-4.97
113456,1631,34952,166,104889,35.00,-7.20,-4.97
113478,1560,34568,141,104871,35.00,-7.23,-4.98
113500,1705,34056,141,104926,35.00,-7.22,-4.98
113522,1797,33288,125,105008,35.00,-7.20,-4.97
113544,1722,32776,121,105076,35.00,-7.24,-4.98
113566,1716,32752,123,105107,35.00,-7.23,-5.01
113609,1767,32752,139,105249,35.00,-7.23,-5.01
113631,1364,17680,139,105331,35.00,-7.24,-5.01
113653,1491,5440,153,105405,35.00,-7.23,-4.96
113675,1529,1280,150,105471,35.00,-7.22,-4.96
113697,2285,512,179,105534,35.00,-7.27,-4.98
113719,2078,512,157,105601,35.00,-7.24,-4.96
113741,1676,1280,132,105673,35.00,-7.22,-5.01
113763,1781,2688,137,105742,35.00,-7.21,-4.97
113785,2203,3968,147,105791,35.00,-7.21,-4.92
113807,2352,4672,147,105848,35.00,-7.23,-4.96
113849,1834,5952,138,106021,35.00,-7.26,-5.00
113871,1594,10016,147,106085,35.00,-7.22,-4.98
113893,2057,13664,175,106157,35.00,-7.21,-4.97
113915,2153,16400,171,106227,35.00,-7.24,-4.94
113937,2103,18576,172,106302,35.00,-7.24,-4.98
113959,2109,19856,157,106350,35.00,-7.24,-4.96
113981,1739,20560,151,106348,35.00,-7.23,-4.97
114351,3115,21840,165,106070,35.44,-7.20,-4.98
114391,1333,25904,151,105302,35.00,-7.19,-4.97
114413,1019,25904,143,105407,35.00,-7.22,-4.98
114435,1259,26416,153,105520,35.00,-7.22,-4.96
114457,1865,26416,170,105611,35.00,-7.20,-4.96
114479,1657,26416,150,105701,35.00,-7.21,-4.95
114501,1743,26416,147,105778,35.00,-7.19,-4.97
114523,1895,26800,133,105850,35.00,-7.23,-4.97
114545,1939,26800,126,105909,35.00,-7.24,-4.98
114567,1965,26800,125,105966,35.00,-7.21,-4.99
114589,1797,26800,121,106015,35.00,-7.23,-4.97
114631,1583,26800,139,106309,35.00,-7.24,-4.99
114653,1327,26800,143,106385,35.00,-7.22,-4.98
114675,1515,26800,155,106428,35.00,-7.28,-4.94
114697,1659,27312,165,106457,35.00,-7.23,-4.99
114719,1775,27312,159,106291,35.00,-7.23,-5.00
114741,1868,27312,153,105770,35.00,-7.26,-4.96
114763,1895,27312,135,105305,35.00,-7.23,-5.01
114785,1816,27312,133,105058,35.00,-7.25,-4.98
114807,1641,27312,118,104937,35.00,-7.18,-4.96
114829,1598,27312,120,104875,35.00,-7.25,-4.92
114851,1644,27312,127,104846,35.00,-7.24,-4.96
114892,1679,28080,146,104817,35.00,-7.22,-4.96
114914,1560,28080,149,104920,35.00,-7.21,-4.98
114936,1645,28080,159,105060,35.00,-7.21,-4.99
114958,1675,28080,164,105149,35.00,-7.27,-5.00
114980,1678,28080,157,105195,35.00,-7.23,-4.99
115372,1889,28080,151,105224,35.50,-7.20,-4.95
115413,1639,28592,149,106647,35.00,-7.22,-4.94
115435,2414,28592,175,106609,35.00,-7.23,-4.94
115457,1295,28592,157,106241,35.00,-7.23,-4.97
115479,1646,28784,167,105672,35.00,-7.22,-4.99
115501,1967,28784,174,105283,35.00,-7.25,-4.99
115523,1927,28784,159,105094,35.00,-7.23,-4.98
115545,1847,28784,149,105020,35.00,-7.21,-4.95
115567,1779,28592,135,104986,35.00,-7.22,-4.93
115589,1755,28784,133,104952,35.00,-7.28,-4.96
115611,1701,28784,123,104935,35.00,-7.24,-4.99
115633,1350,28784,143,104965,35.00,-7.19,-4.98
115674,1421,28784,148,105251,35.00,-7.23,-5.00
115696,1303,28784,153,105322,35.00,-7.22,-4.97
115718,1252,28784,153,105350,35.00,-7.27,-4.96
115740,1221,28784,153,105371,35.00,-7.22,-4.99
115762,1647,28784,153,105430,35.00,-7.20,-4.98
115784,1366,29296,140,105495,35.00,-7.24,-4.92
115806,1407,28784,115,105572,35.00,-7.23,-4.99
115828,1293,28784,110,105654,35.00,-7.25,-4.99
115850,1355,29296,103,105730,35.00,-7.23,-4.93
115872,1323,29296,109,105819,35.00,-7.21,-4.98
115915,1100,29296,119,106081,35.00,-7.22,-5.00
115937,1210,29296,125,106177,35.00,-7.24,-4.93
115959,1400,29296,140,106243,35.00,-7.25,-4.95
115981,1391,29296,139,106314,35.00,-7.24,-4.98
116392,1619,29296,135,106366,36.07,-7.21,-5.01
116420,1908,30576,149,105461,35.00,-7.21,-4.95
116442,1877,30576,179,105517,35.00,-7.23,-4.95
116464,2035,30576,173,105543,35.00,-7.22,-4.94
116486,1937,30576,158,105567,35.00,-7.21,-5.00
116508,2275,30576,152,105615,35.00,-7.25,-4.97
116530,1913,30576,139,105692,35.00,-7.21,-4.99
116552,1711,30576,133,105774,35.00,-7.25,-4.96
116574,1773,30576,139,105840,35.00,-7.24,-4.98
116616,1416,30576,142,106095,35.00,-7.24,-4.95
116638,1015,30576,148,106193,35.00,-7.23,-4.98
116660,1243,30576,151,106271,35.00,-7.23,-4.97
116682,1065,30576,153,106361,35.00,-7.21,-4.98
116704,1335,30576,152,106444,35.00,-7.19,-4.97
116726,1479,30960,137,106505,35.00,-7.24,-4.98
116748,1541,30960,125,106559,35.00,-7.21,-4.99
116770,1397,30960,111,106605,35.00,-7.21,-4.94
116792,1289,30960,109,106658,35.00,-7.19,-4.96
116814,1271,30576,114,106738,35.00,-7.21,-5.00
116836,1208,30960,125,106830,35.00,-7.23,-4.96
116877,1020,30960,125,107044,35.00,-7.23,-5.00
116899,1068,30576,134,107067,35.00,-7.23,-4.98
116921,1203,30576,149,106936,35.00,-7.26,-4.95
116943,1287,30576,142,106428,35.00,-7.20,-4.95
116965,1370,30960,135,105808,35.00,-7.26,-4.97
116987,1645,30960,132,105448,35.00,-7.24,-5.01
117413,1785,30960,109,105308,36.54,-7.21,-5.01
117442,2169,30960,135,106400,35.00,-7.22,-4.94
117464,1967,30960,175,106467,35.00,-7.24,-4.99
117486,2015,30960,157,106527,35.00,-7.27,-4.94
117508,2409,30576,171,106574,35.00,-7.23,-4.94
117530,2659,30576,155,106655,35.00,-7.24,-4.95
117552,2063,30576,135,106746,35.00,-7.23,-4.97
117574,2283,30576,141,106839,35.00,-7.26,-5.01
117596,2043,30576,141,106920,35.00,-7.21,-4.99
117618,1769,30576,147,107003,35.00,-7.22,-4.96
117659,1773,30576,163,106359,35.00,-7.21,-4.95
117681,1831,30576,167,105755,35.00,-7.19,-4.98
117703,1692,30960,171,105422,35.00,-7.23,-5.01
117725,1740,30960,171,105268,35.00,-7.21,-4.97
117747,1883,30960,169,105209,35.00,-7.21,-5.02
117769,1983,30960,157,105172,35.00,-7.23,-4.96
117791,1948,30960,145,105137,35.00,-7.24,-4.95
117813,1832,30960,141,105130,35.00,-7.22,-4.99
117835,1772,30960,143,105138,35.00,-7.21,-4.99
117857,1769,30960,147,105238,35.00,-7.22,-5.00
117899,1709,30960,155,105561,35.00,-7.26,-4.99
117921,1643,30960,173,105590,35.00,-7.23,-5.00
117943,1767,30960,177,105632,35.00,-7.23,-4.98
117965,1819,30960,180,105689,35.00,-7.24,-4.99
117987,1805,30960,173,105762,35.00,-7.21,-4.99
118433,1955,30960,169,105851,35.24,-7.23,-4.97
118462,1797,30960,141,105285,35.00,-7.20,-4.97
118484,1340,30960,167,105224,35.00,-7.19,-4.99
118506,1493,30960,175,105162,35.00,-7.24,-5.00
118528,1719,30960,180,105128,35.00,-7.20,-4.97
118550,1851,30960,167,105119,35.00,-7.27,-4.98
118572,1914,30960,155,105160,35.00,-7.22,-4.97
118594,1851,30960,149,105270,35.00,-7.21,-4.98
118616,1869,30960,141,105395,35.00,-7.23,-4.99
118638,1847,30960,147,105509,35.00,-7.22,-4.97
118660,1763,30960,163,105552,35.00,-7.22,-4.99
118701,1747,30960,167,105729,35.00,-7.24,-4.96
118723,1749,30960,178,105801,35.00,-7.21,-4.97
118745,1783,30960,182,105891,35.00,-7.23,-5.03
118767,1845,30960,189,105985,35.00,-7.23,-4.97
118789,1970,30960,183,106083,35.00,-7.22,-4.97
118811,1949,30960,179,106180,35.00,-7.19,-4.97
118833,1945,30960,159,106262,35.00,-7.23,-4.98
118855,1967,30960,151,106355,35.00,-7.24,-4.96
118877,1875,31472,143,106447,35.00,-7.23,-4.97
118899,1785,30960,148,106530,35.00,-7.27,-4.96
118921,1659,31472,159,106612,35.00,-7.20,-4.98
118962,1577,30960,169,106815,35.00,-7.25,-4.95
118984,1519,30960,171,106901,35.00,-7.24,-4.97
119708,1449,30960,175,106987,35.57,-7.20,-5.01
119744,2073,30960,179,107055,35.00,-7.24,-4.93
119766,1912,30960,175,107152,35.00,-7.23,-5.02
119788,2091,31472,185,107234,35.00,-7.26,-4.97
119810,1973,31472,183,107297,35.00,-7.25,-4.95
119832,2263,31472,181,107324,35.00,-7.21,-4.98
119854,2546,31472,179,107101,35.00,-7.23,-5.01
119876,2092,31472,153,106484,35.00,-7.02,-4.83
119898,2151,31472,153,105836,35.00,-7.26,-5.00
119920,2058,31472,146,105514,35.00,-7.21,-5.00
119942,2045,31472,151,105397,35.00,-7.17,-4.95
119984,1419,31472,149,105233,35.00,-7.19,-4.98
120729,2107,31472,185,105205,35.82,-7.23,-5.01
120766,2007,32240,168,105293,35.00,-7.20,-4.98
120788,1742,32240,153,105391,35.00,-7.20,-4.98
120810,1751,32240,173,105538,35.00,-7.23,-4.97
120832,2245,32240,201,105642,35.00,-7.23,-4.98
120854,2695,32240,199,105692,35.00,-7.20,-5.01
120876,2573,32240,179,105715,35.00,-7.24,-4.97
120898,3269,32752,233,105765,35.00,-7.24,-4.95
120920,3816,33288,265,105821,35.00,-7.24,-4.97
120942,1135,36232,88,105895,35.00,-7.24,-4.99
120964,0,40904,90,105975,35.00,-7.20,-4.96
120986,2581,41512,210,106064,35.00,-7.23,-4.99
121027,3423,42280,172,106317,35.00,-7.24,-4.97
121049,1211,42280,137,106421,35.00,-7.21,-5.00
121071,1711,41512,157,106518,35.00,-7.19,-4.96
121093,1909,37448,181,106600,35.00,-7.22,-4.95
121115,2135,33288,187,106680,35.00,-7.26,-4.96
121137,1973,32752,159,106741,35.00,-7.23,-5.00
121159,2607,32752,179,106822,35.00,-7.18,-5.01
121181,3630,32752,197,106890,35.00,-7.22,-4.99
121203,3082,32752,157,106967,35.00,-7.23,-4.98
121225,2123,32240,163,107048,35.00,-7.25,-4.94
121267,2821,32240,188,107300,35.00,-7.21,-4.99
121289,1901,32752,175,107359,35.00,-7.22,-4.99
121311,2595,32240,220,107300,35.00,-7.21,-4.96
121333,2775,32752,263,106861,35.00,-7.21,-4.97
121355,2695,32240,249,106162,35.00,-7.26,-4.97
121377,2727,32240,235,105711,35.00,-7.23,-4.94
121399,3454,32752,269,105528,35.00,-7.24,-5.00
121421,3805,32752,236,105453,35.00,-7.23,-5.01
121443,3831,32776,307,105392,35.00,-7.26,-4.97
121465,3852,33288,349,105365,35.00,-7.21,-4.93
121487,3871,34056,521,105349,35.00,-7.23,-4.98
121528,3877,34056,1081,105580,35.00,-7.24,-5.01
121550,3853,34568,1555,105703,35.00,-7.24,-5.01
121572,3860,34952,1100,105799,35.00,-7.24,-4.95
121594,3837,34568,781,105839,35.00,-7.21,-4.97
121616,3839,32776,639,105881,35.00,-7.18,-5.04
121638,3832,32752,431,105936,35.00,-7.17,-4.99
121660,1431,32240,185,106021,35.00,-7.20,-4.98
121682,267,32240,115,106096,35.00,-7.27,-4.96
121704,0,32776,86,106184,35.00,-7.26,-4.94
121726,0,33288,56,106276,35.00,-7.23,-5.00
121769,0,32752,71,106544,35.00,-7.23,-4.99
121791,0,32240,101,106632,35.00,-7.28,-4.94
121813,0,32752,103,106715,35.00,-7.26,-4.95
121835,0,32752,81,106779,35.00,-7.19,-4.93
121857,0,32752,51,106862,35.00,-7.25,-4.99
121879,0,32752,51,106930,35.00,-7.22,-5.00
121901,0,32752,57,106985,35.00,-7.24,-5.01
121923,0,32240,103,107033,35.00,-7.20,-4.96
121945,0,32240,163,107086,35.00,-7.26,-4.99
121967,843,32240,231,107176,35.00,-7.22,-4.96
122515,251,32752,189,107439,35.29,-7.25,-4.99
122551,2931,52632,189,106246,35.00,-7.23,-4.99
122573,3692,53144,181,106336,35.00,-7.22,-4.99
122595,2846,53848,175,106410,35.00,-7.23,-4.96
122617,3080,53336,185,106457,35.00,-7.19,-4.97
122639,2203,54616,165,106518,35.00,-7.24,-5.02
122661,1259,55128,131,106576,35.00,-7.16,-4.98
122683,3863,55128,149,106628,35.00,-7.17,-4.98
122705,3854,56024,139,106700,35.00,-7.28,-5.00
122727,3859,57400,146,106766,35.00,-7.22,-4.96
122749,3851,58680,147,106844,35.00,-7.22,-4.99
122791,3851,61368,159,106946,35.00,-7.26,-4.98
122813,3821,65540,181,106739,35.00,-7.25,-4.99
122835,3555,66820,173,106144,35.00,-7.26,-4.97
122857,3831,67332,181,105560,35.00,-7.24,-4.96
122879,3631,67332,171,105242,35.00,-7.24,-5.00
122901,2478,67716,139,105063,35.00,-7.24,-4.96
122923,2373,67332,113,104971,35.00,-7.26,-4.97
122945,3102,65528,136,104887,35.00,-7.24,-4.99
122967,2521,64248,119,104817,35.00,-7.23,-5.00
122989,2125,62840,135,104758,35.00,-7.23,-4.95
123032,2344,61560,139,104878,35.00,-7.24,-4.96
123054,2459,60088,181,104980,35.00,-7.23,-4.97
123076,2164,60088,175,105054,35.00,-7.23,-5.02
123098,1848,60088,185,105073,35.00,-7.24,-4.96
123120,1529,59576,153,105104,35.00,-7.22,-4.96
123142,2895,59576,171,105160,35.00,-7.19,-4.98
123164,3482,59576,173,105214,35.00,-7.24,-4.99
123186,2205,59576,147,105286,35.00,-7.24,-4.97
123208,1935,59576,125,105353,35.00,-7.25,-4.99
123230,1945,59576,139,105429,35.00,-7.21,-4.97
123272,1813,59576,147,105640,35.00,-7.20,-5.00
123294,947,59576,140,105691,35.00,-7.20,-4.97
123316,1467,59192,160,105752,35.00,-7.19,-4.98
123338,1433,59192,163,105820,35.00,-7.24,-5.00
123360,1419,59192,148,105889,35.00,-7.25,-4.97
123382,229,59192,117,105942,35.00,-7.24,-4.99
123404,787,59576,120,105974,35.00,-7.17,-4.96
123426,1367,62072,109,106009,35.00,-7.23,-4.97
123448,1419,64248,101,106063,35.00,-7.23,-4.98
123470,1101,65016,117,106133,35.00,-7.23,-4.96
123492,1853,63736,142,106218,35.00,-7.27,-5.00
123533,2285,61368,166,106426,35.00,-7.22,-5.00
123555,1339,59576,141,106427,35.00,-7.22,-5.00
123577,1326,59192,147,106139,35.00,-7.21,-4.95
123599,2293,59192,171,105559,35.00,-7.25,-4.96
123621,1863,59192,159,105152,35.00,-7.22,-4.98
123643,1605,59192,138,104910,35.00,-7.22,-4.99
123665,1715,59192,119,104793,35.00,-7.22,-5.00
123687,2271,59192,125,104713,35.00,-7.23,-4.98
123709,1915,59192,122,104636,35.00,-7.22,-4.96
123731,1819,59192,134,104564,35.00,-7.20,-5.00
123774,1526,59192,133,104601,35.00,-7.24,-4.91
123796,2009,59192,160,104704,35.00,-7.22,-4.98
123818,3321,59192,210,104767,35.00,-7.22,-4.96
123840,1589,59192,172,104787,35.00,-7.21,-4.98
123862,1395,60856,147,104812,35.00,-7.25,-4.96
123884,2201,61560,139,104837,35.00,-7.24,-4.94
123906,3813,61560,176,104875,35.00,-7.22,-4.97
123928,2421,60088,152,104947,35.00,-7.24,-4.96
123950,1752,59576,133,105010,35.00,-7.27,-5.02
123972,1433,59192,135,105074,35.00,-7.23,-5.00
124556,2639,59576,173,105303,35.70,-7.23,-4.99
124596,2025,57912,171,104433,35.00,-7.21,-4.97
124618,1514,57304,173,104481,35.00,-7.20,-4.97
124640,2127,57912,184,104520,35.00,-7.26,-5.00
124662,661,57304,158,104551,35.00,-7.21,-5.00
124684,3861,54616,223,104610,35.00,-7.23,-4.95
124706,2185,53144,156,104663,35.00,-7.19,-4.99
124728,1637,52632,135,104726,35.00,-7.21,-5.01
124750,1641,52632,135,104795,35.00,-7.21,-4.98
124772,1863,52632,143,104851,35.00,-7.24,-4.95
124794,538,50968,121,104918,35.00,-7.24,-4.96
124836,1291,50968,168,105082,35.00,-7.23,-4.95
124858,1205,55128,169,105127,35.00,-7.23,-5.00
124880,791,57400,167,105185,35.00,-7.24,-4.96
124902,537,58680,155,105232,35.00,-7.28,-4.97
124924,0,57912,135,105274,35.00,-7.21,-4.93
124946,1,59192,136,105328,35.00,-7.24,-4.96
124968,0,60856,111,105405,35.00,-7.22,-4.97
124990,2917,60856,164,105468,35.00,-7.23,-4.96
125576,3087,59576,143,105527,35.18,-7.25,-4.94
125618,3847,30576,187,105019,35.00,-7.20,-5.04
125640,2684,27312,173,105074,35.00,-7.24,-4.96
125662,1238,27312,152,105133,35.00,-7.22,-5.02
125684,133,28080,149,105178,35.00,-7.21,-4.98
125706,2571,28080,183,105223,35.00,-7.27,-4.96
125728,3451,28592,179,105265,35.00,-7.25,-4.99
125750,3769,28784,169,105324,35.00,-7.20,-5.01
125772,2457,29296,141,105363,35.00,-7.18,-5.04
125794,3446,30064,152,105406,35.00,-7.25,-4.96
125816,2683,62072,143,105412,35.00,-7.23,-4.95
125859,2775,83220,157,104545,35.00,-7.23,-4.99
125881,1920,63352,140,104284,35.00,-7.21,-4.96
125903,2547,111212,211,104141,35.00,-7.24,-4.99
125925,3848,137026,200,104052,35.00,-7.26,-4.94
125947,3847,144738,184,103970,35.00,-7.24,-4.98
125969,2937,147426,151,103901,35.00,-7.23,-5.00
125991,1309,149650,107,103836,35.00,-7.22,-4.97
126597,2423,150162,127,103800,35.42,-7.26,-5.00
126628,1711,12384,152,104448,35.00,-7.21,-4.95
126650,1435,13664,143,104155,35.00,-7.24,-5.02
126672,1724,14560,131,103947,35.00,-7.16,-5.00
126694,2313,16352,147,103848,35.00,-7.25,-4.98
126716,1949,17680,135,103792,35.00,-7.23,-4.95
126738,991,18576,126,103752,35.00,-7.21,-5.00
126760,659,19856,126,103720,35.00,-7.21,-4.97
126801,574,21072,149,103856,35.00,-7.30,-4.97
126823,249,28784,151,103939,35.00,-7.26,-4.94
126845,735,30576,149,103978,35.00,-7.24,-4.96
126867,1449,32240,168,104017,35.00,-7.19,-4.98
126889,1183,32752,149,104062,35.00,-7.20,-4.99
126911,1081,32752,135,104095,35.00,-7.19,-5.01
126933,1097,32776,119,104152,35.00,-7.28,-4.93
126955,1511,33288,123,104215,35.00,-7.21,-4.96
126977,1343,34056,111,104271,35.00,-7.21,-4.98
126999,2211,34568,137,104328,35.00,-7.21,-4.98
127042,2250,34952,137,104532,35.00,-7.26,-5.01
127064,0,35464,119,104597,35.00,-7.15,-4.96
127086,0,36744,117,104659,35.00,-7.28,-4.94
127108,0,36744,117,104702,35.00,-7.24,-4.95
127130,1085,36744,124,104732,35.00,-7.20,-4.97
127152,1579,36936,119,104777,35.00,-7.22,-5.01
127174,1589,36936,105,104812,35.00,-7.22,-4.98
127196,631,36936,92,104847,35.00,-7.22,-4.99
127218,1369,37448,115,104867,35.00,-7.26,-4.97
127240,1943,37448,139,104911,35.00,-7.23,-4.95
127282,1647,38216,136,105100,35.00,-7.22,-4.99
127304,0,37448,104,105121,35.00,-7.20,-4.99
127326,2413,38728,178,105127,35.00,-7.23,-4.97
127348,2216,39112,191,105077,35.00,-7.25,-4.96
127370,215,39624,134,104794,35.00,-7.25,-4.98
127392,3419,40392,219,104419,35.00,-7.21,-5.00
127414,2441,40392,173,104141,35.00,-7.19,-4.97
127436,1179,40392,143,103976,35.00,-7.23,-5.00
127458,3861,40904,197,103900,35.00,-7.24,-5.00
127480,3480,40904,187,103876,35.00,-7.29,-4.97
127502,3766,41000,217,103874,35.00,-7.20,-4.97
127543,3115,41000,215,103994,35.00,-7.22,-4.95
127565,3821,41000,208,104100,35.00,-7.26,-4.97
127587,3197,41512,203,104176,35.00,-7.25,-4.93
127609,2763,41512,187,104191,35.00,-7.21,-4.99
127631,2701,41512,171,104237,35.00,-7.21,-4.98
127653,3251,41512,155,104273,35.00,-7.25,-5.03
127675,2879,42280,135,104350,35.00,-7.22,-5.00
127697,2151,42280,121,104418,35.00,-7.24,-4.95
127719,2503,42280,119,104491,35.00,-7.23,-4.96
127741,2413,42280,95,104551,35.00,-7.23,-4.93
127783,1757,42280,89,104788,35.00,-7.24,-4.92
127805,1545,42280,95,104873,35.00,-7.24,-4.96
127827,1234,42280,75,104958,35.00,-7.24,-4.96
127849,941,42280,72,105031,35.00,-7.24,-4.98
127871,0,42280,69,105113,35.00,-7.24,-5.03
127893,346,42280,88,105194,35.00,-7.22,-4.98
127915,1107,42792,69,105260,35.00,-7.20,-4.96
127937,955,42792,45,105307,35.00,-7.21,-4.98
127959,41,42792,24,105373,35.00,-7.26,-4.94
127981,0,42792,31,105453,35.00,-7.23,-4.96
128383,0,42792,29,105534,36.28,-7.23,-4.96
128425,2285,42792,199,104643,35.00,-7.26,-4.99
128447,2015,42792,184,104716,35.00,-7.21,-4.97
128469,1213,42792,175,104767,35.00,-7.23,-5.00
128491,1549,42792,170,104811,35.00,-7.21,-4.97
128513,1503,43176,143,104865,35.00,-7.21,-4.97
128535,1557,42792,120,104902,35.00,-7.26,-4.98
128557,1378,43176,109,104944,35.00,-7.29,-5.02
128579,925,43176,100,104994,35.00,-7.15,-4.92
